WIFI_Timestamp,Aligned_ECG,Aligned_Breath,WIFI_Mean_Mag,CSI_Mag_0,CSI_Phase_0,CSI_Mag_1,CSI_Phase_1,CSI_Mag_2,CSI_Phase_2,CSI_Mag_3,CSI_Phase_3,CSI_Mag_4,CSI_Phase_4,CSI_Mag_5,CSI_Phase_5,CSI_Mag_6,CSI_Phase_6,CSI_Mag_7,CSI_Phase_7,CSI_Mag_8,CSI_Phase_8,CSI_Mag_9,CSI_Phase_9,CSI_Mag_10,CSI_Phase_10,CSI_Mag_11,CSI_Phase_11,CSI_Mag_12,CSI_Phase_12,CSI_Mag_13,CSI_Phase_13,CSI_Mag_14,CSI_Phase_14,CSI_Mag_15,CSI_Phase_15,CSI_Mag_16,CSI_Phase_16,CSI_Mag_17,CSI_Phase_17,CSI_Mag_18,CSI_Phase_18,CSI_Mag_19,CSI_Phase_19,CSI_Mag_20,CSI_Phase_20,CSI_Mag_21,CSI_Phase_21,CSI_Mag_22,CSI_Phase_22,CSI_Mag_23,CSI_Phase_23,CSI_Mag_24,CSI_Phase_24,CSI_Mag_25,CSI_Phase_25,CSI_Mag_26,CSI_Phase_26,CSI_Mag_27,CSI_Phase_27,CSI_Mag_28,CSI_Phase_28,CSI_Mag_29,CSI_Phase_29,CSI_Mag_30,CSI_Phase_30,CSI_Mag_31,CSI_Phase_31,CSI_Mag_32,CSI_Phase_32,CSI_Mag_33,CSI_Phase_33,CSI_Mag_34,CSI_Phase_34,CSI_Mag_35,CSI_Phase_35,CSI_Mag_36,CSI_Phase_36,CSI_Mag_37,CSI_Phase_37,CSI_Mag_38,CSI_Phase_38,CSI_Mag_39,CSI_Phase_39,CSI_Mag_40,CSI_Phase_40,CSI_Mag_41,CSI_Phase_41,CSI_Mag_42,CSI_Phase_42,CSI_Mag_43,CSI_Phase_43,CSI_Mag_44,CSI_Phase_44,CSI_Mag_45,CSI_Phase_45,CSI_Mag_46,CSI_Phase_46,CSI_Mag_47,CSI_Phase_47,CSI_Mag_48,CSI_Phase_48,CSI_Mag_49,CSI_Phase_49,CSI_Mag_50,CSI_Phase_50,CSI_Mag_51,CSI_Phase_51
2026-03-04 19:21:58.014982,444.12,43823.26,7.2770466804504395,6.0065494,0.29722556,6.1335382,0.29772004,6.266094,0.25579363,7.682366,0.14416528,6.393374,0.13334347,6.2037826,0.22396693,6.2543583,0.24910511,6.3489532,0.19381632,6.8134217,0.1655441,5.9506283,0.17103776,7.834137,0.08513067,7.686946,0.13261607,7.0998883,0.13774239,7.079932,0.10623859,7.519777,0.10825057,9.17841,0.057513315,6.7793665,0.034064718,6.2972927,0.040810436,6.6866646,0.094602644,8.220721,0.060110014,7.9111347,0.07037985,8.190026,0.0071393065,6.7806244,0.040123526,6.885602,0.07043568,9.079244,0.021060819,8.139543,0.0039222743,7.4152026,-0.030631498,9.384227,-0.015828868,8.206686,0.009537586,8.86909,-0.0070511443,7.244028,-0.03248782,8.386502,-0.064282164,8.378349,-0.08477158,7.6830635,-0.047093466,7.7817664,-0.10662475,8.2104,-0.043658536,8.578194,-0.03767265,7.3240194,-0.04556635,7.9047465,-0.062573,8.22394,-0.031009078,6.155783,-0.106066875,7.847038,-0.12963177,6.602844,-0.08306944,7.7634115,-0.08779543,6.5007267,-0.13559903,7.0960793,-0.1506726,6.402578,-0.18254995,5.7979293,-0.22739004,6.4252768,-0.15799868,6.9716897,-0.11294879,6.031035,-0.25136065,5.799496,-0.23134387
2026-03-04 19:21:58.030134,444.12,43823.26,7.285364151000977,6.0691175,0.29582602,6.0823054,0.29807472,6.33719,0.2622111,7.58901,0.14878279,6.538821,0.13394652,6.1088433,0.22955588,6.152912,0.26393425,6.37506,0.20381893,6.7973223,0.17991588,6.1015806,0.17594442,7.8695393,0.07071411,7.678879,0.12306546,7.0685754,0.1282199,7.0773354,0.09169569,7.4041443,0.10392955,9.332277,0.057993762,6.720504,0.031350214,6.3883266,0.03645255,6.5818377,0.10183346,8.196509,0.06292159,7.9015594,0.07604271,8.240068,0.01669325,6.936474,0.03323576,6.858629,0.053254273,9.040584,0.009756621,8.03562,-0.001507648,7.3435683,-0.032073043,9.5720415,-0.0178105,8.105007,0.0038282787,8.957501,-0.015597024,7.070016,-0.032333065,8.390146,-0.061201952,8.283269,-0.08656059,7.775795,-0.044871613,7.7452765,-0.10234717,8.41988,-0.049448762,8.624741,-0.056175627,7.312001,-0.055626385,7.9476,-0.078294106,8.129039,-0.047786247,6.313608,-0.11993696,7.83891,-0.14033045,6.675961,-0.09029318,7.5924644,-0.08905623,6.4883432,-0.13724035,7.0497327,-0.15716234,6.5021896,-0.18394683,5.7706614,-0.22500557,6.556027,-0.17029512,6.9846015,-0.13957466,6.08011,-0.27543083,5.8274236,-0.25088942
2026-03-04 19:21:58.050057,444.12,43823.26,7.306846618652344,6.0942216,0.30562773,6.0588436,0.30967653,6.3881526,0.27526486,7.5880666,0.15656492,6.591974,0.14655943,6.116758,0.23283242,6.2155876,0.27100664,6.4178376,0.21082957,6.7460546,0.1830735,6.175489,0.17515041,7.9257846,0.08079459,7.7146463,0.12841243,7.082446,0.12710552,7.0562906,0.09925897,7.3635154,0.11502816,9.382666,0.067124076,6.723494,0.039070852,6.4271445,0.045718588,6.544236,0.1030318,8.154585,0.06726649,7.9414935,0.0776901,8.214152,0.02160269,6.973667,0.0353641,6.8971667,0.054313075,9.0632305,0.011145456,8.082796,-0.0038066912,7.332705,-0.027241893,9.691681,-0.012987864,8.10858,0.01112361,8.99223,-0.011312267,7.023038,-0.033772018,8.418342,-0.058252435,8.360179,-0.08968607,7.811633,-0.039031085,7.7777724,-0.10578754,8.458632,-0.04868956,8.634381,-0.050784267,7.3481073,-0.05164674,7.9781265,-0.072532035,8.184837,-0.037822213,6.341042,-0.11189453,7.839776,-0.13614903,6.7536263,-0.08516542,7.6146517,-0.09121808,6.510399,-0.14528593,7.051884,-0.16298573,6.507509,-0.18713316,5.747891,-0.23342517,6.627612,-0.16873814,6.9966516,-0.13443047,6.0984287,-0.27421552,5.8059893,-0.25541776
2026-03-04 19:21:58.060174,444.12,43823.26,7.293473243713379,6.000791,0.29963043,6.1680584,0.30391008,6.299765,0.261743,7.6445646,0.15650925,6.4427633,0.14469118,6.215784,0.22015074,6.2585835,0.2681643,6.375818,0.20368887,6.732624,0.18935627,5.990223,0.15955748,7.8963847,0.07400255,7.6910214,0.1116365,7.1071186,0.11281829,7.013342,0.0859721,7.4866986,0.104190305,9.260828,0.06303275,6.7735214,0.042243473,6.340994,0.05073165,6.724042,0.09104419,8.289342,0.07009662,7.893273,0.07913505,8.166985,0.02516579,6.7898917,0.028168553,6.902829,0.047581095,9.038762,-0.0036062659,8.15623,-0.012188172,7.3936443,-0.025069755,9.45449,-0.016700814,8.224303,0.01691039,8.872978,-0.004002486,7.1869793,-0.042239342,8.500016,-0.058716442,8.363436,-0.08702354,7.7652335,-0.047540125,7.744487,-0.09813099,8.29696,-0.053223025,8.656812,-0.054848455,7.357571,-0.07979472,7.928974,-0.082628086,8.204235,-0.04871932,6.2336416,-0.11132372,7.867484,-0.12494605,6.624663,-0.08040993,7.7151413,-0.0978278,6.5625987,-0.12815352,7.0629687,-0.15618308,6.481187,-0.18796346,5.707134,-0.21789306,6.494377,-0.1747032,6.988998,-0.13436016,6.0455127,-0.2832276,5.8665843,-0.24550353
2026-03-04 19:21:58.070184,444.12,43823.26,7.310821056365967,5.944893,0.2939056,6.2108803,0.29606006,6.2035284,0.25169632,7.8311896,0.14641058,6.4091387,0.13645251,6.2374463,0.22276951,6.2276697,0.25341475,6.377832,0.19626597,6.801099,0.17397432,5.9586067,0.16836675,7.8521314,0.08050378,7.7560863,0.12252099,7.114977,0.13009945,7.078231,0.10204935,7.610482,0.10458296,9.149463,0.057884946,6.9263206,0.036054887,6.310038,0.044848718,6.784144,0.096305184,8.232054,0.058534913,7.938922,0.0760825,8.210714,0.011913466,6.7381034,0.035778824,6.842469,0.06588955,9.139734,0.01409431,8.250901,0.0041522174,7.5594797,-0.025686355,9.353035,-0.0150027275,8.338078,0.01072368,8.829516,-0.0015199954,7.34896,-0.03227177,8.33424,-0.06146368,8.3872175,-0.08905362,7.748296,-0.04581249,7.914032,-0.10080293,8.209136,-0.045398656,8.619549,-0.043465033,7.3462796,-0.05749295,7.9357157,-0.063165165,8.371716,-0.041282505,6.106275,-0.10252949,7.9675465,-0.1266654,6.581459,-0.080488704,7.8118873,-0.088688664,6.4994764,-0.134963,7.1178675,-0.1481482,6.4003053,-0.17489941,5.8245196,-0.22202773,6.4582543,-0.16067682,6.962815,-0.12486487,6.089454,-0.25754187,5.9105363,-0.24196377
2026-03-04 19:21:58.075163,444.12,43823.26,7.344959735870361,6.0724936,0.32672492,6.068395,0.3230606,6.437912,0.29139084,7.6694417,0.18309887,6.648613,0.16336167,6.1387,0.23208849,6.3034177,0.2770284,6.341893,0.21041977,6.784936,0.18901218,6.172076,0.17866476,7.97045,0.09922587,7.751874,0.1291026,7.201878,0.14159147,7.0282607,0.11498753,7.41564,0.1193921,9.390054,0.08031452,6.7131195,0.06611186,6.480048,0.06818766,6.6229267,0.1066671,8.284262,0.07186465,7.957612,0.078898825,8.194419,0.026809903,6.995469,0.03628549,6.9477324,0.07275884,9.109995,0.018829647,8.176659,0.004234561,7.401049,-0.01996441,9.659521,-0.001769273,8.10693,0.0350049,9.092353,0.012638678,7.0442696,-0.028202407,8.4919,-0.05446329,8.431548,-0.08385961,7.820996,-0.047855034,7.8525267,-0.09784729,8.434751,-0.039793946,8.729729,-0.036392957,7.398612,-0.045755424,7.996843,-0.061993044,8.19081,-0.031719774,6.347588,-0.09681186,7.814477,-0.1149263,6.770313,-0.07245591,7.6818705,-0.08398425,6.6008534,-0.13317035,7.1318507,-0.1605172,6.525929,-0.20063467,5.832816,-0.22567016,6.689172,-0.16608216,7.0987754,-0.11042361,6.098191,-0.27653676,5.8159184,-0.23226038
2026-03-04 19:21:58.080234,444.12,43823.26,7.34262752532959,6.07113,0.30990082,6.1638947,0.3114936,6.3626065,0.2749633,7.7332387,0.16760553,6.5694194,0.14504865,6.259728,0.21796387,6.2897143,0.26976973,6.428862,0.20743138,6.742567,0.1844531,6.0999675,0.17059152,7.9898205,0.08425702,7.7449894,0.12455281,7.1545978,0.12165784,7.0392404,0.098823704,7.421424,0.114638805,9.332116,0.067097,6.8163905,0.04817977,6.4113927,0.05238998,6.724986,0.095998,8.263166,0.0668934,7.953372,0.07971539,8.251844,0.01789722,6.9078393,0.035882972,6.9935946,0.05672882,9.09734,0.0051112976,8.176596,-0.0057163676,7.362883,-0.019811818,9.554937,-0.011255166,8.263152,0.021282129,8.975711,0.001405589,7.2079372,-0.03994807,8.5908,-0.05586455,8.435575,-0.082732715,7.8413806,-0.039326828,7.7762303,-0.10373119,8.320423,-0.04644037,8.716763,-0.045673814,7.3887377,-0.06364128,7.9624076,-0.075218044,8.258772,-0.03842008,6.2813745,-0.11140221,7.902725,-0.1306194,6.665381,-0.0728344,7.754262,-0.09112189,6.6213255,-0.13069429,7.0887647,-0.15871416,6.499845,-0.18707095,5.7083683,-0.2195665,6.570035,-0.17158039,7.110624,-0.12718523,6.0655875,-0.27221638,5.8927608,-0.24622932
2026-03-04 19:21:58.085268,444.12,43823.26,7.349869728088379,6.1206017,0.3254188,6.0498533,0.32086942,6.447663,0.28010824,7.7320757,0.16907908,6.6722713,0.15806504,6.1710305,0.2278651,6.2082605,0.2669529,6.37859,0.20860323,6.843132,0.19673997,6.1701293,0.16888326,7.886618,0.09173756,7.74744,0.13857011,7.1768045,0.13914566,7.173535,0.11252317,7.4295974,0.120559365,9.335254,0.075357944,6.7132044,0.06189561,6.4981556,0.059111297,6.6313105,0.10329905,8.26469,0.06328892,7.912626,0.0769471,8.340142,0.023167258,6.94913,0.03950763,6.9511914,0.06711862,9.133943,0.01532119,8.163055,0.01275209,7.4358974,-0.021563299,9.657349,-0.0079781655,8.167478,0.024378287,9.091238,0.0059419335,7.0494995,-0.036117367,8.491119,-0.06346983,8.457232,-0.08200934,7.7908707,-0.039219823,7.9571724,-0.09583874,8.423463,-0.048435543,8.655504,-0.038251493,7.4001393,-0.050585445,8.050651,-0.06471599,8.245632,-0.041107047,6.315568,-0.112735234,7.8517337,-0.12111175,6.8172708,-0.07049323,7.6765757,-0.09023189,6.5183706,-0.13452198,7.1436067,-0.16139223,6.508279,-0.18918619,5.8051515,-0.21983427,6.6195407,-0.1671669,7.0470695,-0.11580958,6.110572,-0.2692285,5.8059754,-0.22877295
2026-03-04 19:21:58.095267,444.12,43823.26,7.355876445770264,6.019463,0.30944818,6.175553,0.30340716,6.3463264,0.27009383,7.7994823,0.15814894,6.529124,0.13839032,6.236882,0.23137337,6.2919,0.25835887,6.371443,0.20093976,6.8125963,0.19235615,6.0452447,0.16378495,7.942644,0.07278144,7.77934,0.11934126,7.194673,0.12317806,7.074933,0.09329651,7.581547,0.1022582,9.267782,0.06724956,6.88156,0.048250742,6.4217653,0.031615093,6.779503,0.103666276,8.327648,0.060861755,7.9176455,0.071511105,8.245699,0.022608913,6.8786755,0.029917477,6.970698,0.05524474,9.148095,0.008774622,8.257069,-0.003203095,7.4634542,-0.029045807,9.518545,-0.013998944,8.320069,0.0044817454,8.99892,-0.009880431,7.318245,-0.028698813,8.498779,-0.063571155,8.426053,-0.088368244,7.861148,-0.044841032,7.8964124,-0.09552274,8.327561,-0.048519976,8.6854105,-0.057994347,7.41965,-0.056372423,7.976312,-0.081365176,8.310565,-0.04463436,6.202995,-0.10495105,7.952765,-0.13247597,6.7213845,-0.09568637,7.846762,-0.088881955,6.4963655,-0.13038255,7.1079454,-0.15672801,6.5001144,-0.18459779,5.745719,-0.20922309,6.549314,-0.1650171,7.065508,-0.1279635,6.105465,-0.270682,5.8928137,-0.23746087
2026-03-04 19:21:58.106549,444.12,43823.26,7.380516052246094,6.005206,0.31931856,6.09051,0.31998292,6.4086623,0.2945879,7.8424044,0.163558,6.6554303,0.1531684,6.3055964,0.2315936,6.215329,0.28146294,6.4195967,0.20412193,6.7917933,0.20698805,6.155175,0.15570837,7.999677,0.07330039,7.776084,0.11981612,7.2017317,0.11850959,7.101659,0.10187921,7.5087423,0.10615701,9.33831,0.079220235,6.8368244,0.048020214,6.5057526,0.04283453,6.7141533,0.10162719,8.311794,0.06863916,7.922523,0.07600405,8.285735,0.025843373,6.9460235,0.028853035,7.0160813,0.049650766,9.168335,0.0032389523,8.2524395,-0.014515086,7.4626756,-0.029120224,9.579347,-0.007916866,8.292331,0.01525955,9.065143,-0.006371492,7.189992,-0.032750923,8.565567,-0.058523405,8.464579,-0.09313336,7.89788,-0.044708684,7.8627777,-0.101291455,8.442517,-0.0556646,8.754353,-0.060756702,7.4163237,-0.07014053,8.013626,-0.08677644,8.332441,-0.04367996,6.2912574,-0.1108981,8.0040655,-0.13515948,6.797145,-0.08452856,7.7743926,-0.0942717,6.5996456,-0.12460853,7.1329465,-0.16298902,6.5089946,-0.19014172,5.7093062,-0.21145292,6.697815,-0.17573711,7.1911054,-0.14242806,6.140385,-0.2873326,5.8246408,-0.25584847
2026-03-04 19:21:58.111525,444.12,43823.26,7.37945032119751,6.070506,0.30713865,6.200817,0.30435896,6.3868723,0.26545575,7.8471994,0.15633588,6.594615,0.1425481,6.2259245,0.22471955,6.191875,0.27022767,6.4165826,0.21312088,6.853762,0.19543588,6.1364546,0.15965301,7.9215093,0.06603661,7.7910075,0.111400254,7.2086363,0.11488537,7.1595035,0.08390682,7.5594606,0.10354428,9.315309,0.06400884,6.899829,0.0347861,6.496645,0.04240533,6.690871,0.094518855,8.2309885,0.06602637,8.004358,0.0837532,8.345722,0.022959325,6.970231,0.024700047,6.92532,0.0418474,9.189173,-0.0075272517,8.283309,-0.018766804,7.475921,-0.023918824,9.573438,-0.02105689,8.318888,0.005077096,9.062017,-0.0051435083,7.1550055,-0.044675022,8.468167,-0.059847277,8.411312,-0.087509066,7.89908,-0.0394534,7.9387007,-0.09402685,8.444049,-0.05771635,8.682462,-0.0659061,7.452577,-0.07800649,8.040808,-0.09764276,8.335447,-0.04926012,6.2697597,-0.1157469,7.984604,-0.13937892,6.7842536,-0.0925549,7.736928,-0.09511445,6.5064063,-0.12298228,7.119596,-0.16030765,6.5625505,-0.18315922,5.852945,-0.20627232,6.65136,-0.17865549,7.0627975,-0.14142847,6.168761,-0.28985268,5.857081,-0.25127724
2026-03-04 19:21:58.115939,444.12,43823.26,7.331272602081299,6.0375957,0.32076865,6.0750737,0.30941883,6.363264,0.2841013,7.7000985,0.16458416,6.631306,0.14526837,6.2284994,0.21987271,6.224733,0.27414426,6.407332,0.2226831,6.8101854,0.19986984,6.166569,0.17135945,7.9547577,0.07631997,7.8065777,0.13187292,7.1000757,0.12993822,7.021443,0.09727503,7.3725276,0.10639587,9.341204,0.06940574,6.8053684,0.049571652,6.4929357,0.034679316,6.6273465,0.09476367,8.284568,0.07095895,7.930716,0.08642227,8.233784,0.026443075,6.943441,0.031919375,6.984936,0.05024231,9.10225,0.010947761,8.112169,-0.0025394515,7.3593006,-0.036059044,9.611939,-0.0149327405,8.221795,0.014890368,8.983691,-0.012394528,7.0909605,-0.043806393,8.477675,-0.069220826,8.367519,-0.08305753,7.8728957,-0.04705396,7.77014,-0.10315811,8.403929,-0.04803028,8.707305,-0.05719154,7.355012,-0.068685316,7.9512134,-0.08215911,8.178187,-0.05098401,6.363275,-0.12564918,7.8862348,-0.14339219,6.6961684,-0.09133241,7.7274094,-0.106741935,6.553971,-0.14032544,7.0796084,-0.15153828,6.526929,-0.19296302,5.7074714,-0.226526,6.6225066,-0.17201592,7.084256,-0.13870564,6.055502,-0.28010625,5.8125253,-0.24846467
2026-03-04 19:21:58.120409,444.12,43823.26,7.3483710289001465,5.990411,0.30340627,6.196331,0.3086403,6.272175,0.26674098,7.8581257,0.15357572,6.4871516,0.14807002,6.275672,0.21261689,6.269884,0.25784206,6.3611035,0.21138883,6.8981576,0.17559867,6.0272136,0.16127987,7.918121,0.07017142,7.753831,0.111161545,7.1297154,0.10908598,7.1430893,0.08612266,7.6359224,0.11200821,9.154147,0.05621001,6.864411,0.043357927,6.420787,0.05492333,6.783613,0.0871348,8.245197,0.06286745,7.9582396,0.08664742,8.290011,0.019598084,6.825363,0.026072143,6.878217,0.046054345,9.152212,-0.0031737227,8.262299,-0.010422689,7.611626,-0.012305186,9.421924,-0.023570895,8.3679695,0.014207562,8.939727,0.003368585,7.2571135,-0.040293857,8.411596,-0.059062827,8.489035,-0.07471877,7.809123,-0.03790974,7.912599,-0.09351388,8.278381,-0.050675817,8.656906,-0.052147437,7.400301,-0.075443774,8.044442,-0.08272754,8.428331,-0.043240596,6.1020627,-0.11310426,7.9883275,-0.1301408,6.611031,-0.08011858,7.8501997,-0.093452565,6.5144467,-0.11978034,7.198441,-0.15198973,6.45747,-0.1882726,5.825553,-0.21407464,6.481581,-0.16347711,7.083954,-0.12832578,6.0920444,-0.2780247,5.8297386,-0.23739448
2026-03-04 19:21:58.135380,444.12,43823.26,7.412213325500488,6.172819,0.31792334,6.0717144,0.318114,6.441865,0.28566206,7.8262234,0.16869788,6.720474,0.15349586,6.13091,0.23537529,6.1754885,0.27032697,6.406246,0.22148965,6.8988013,0.19479617,6.287381,0.16242558,7.9835057,0.07908824,7.803165,0.12541604,7.233971,0.1249555,7.2518396,0.09540104,7.443751,0.10714481,9.396768,0.071659364,6.791126,0.049413618,6.639412,0.06416834,6.633789,0.108407125,8.22057,0.06360079,7.972504,0.08631376,8.445414,0.029465513,7.0762653,0.035100777,6.976913,0.04800943,9.221324,0.0025598938,8.301689,-0.008573256,7.4757414,-0.02574122,9.763176,-0.015309565,8.267643,0.015063101,9.168837,0.0016971481,7.0431995,-0.034470297,8.497454,-0.05348406,8.477358,-0.08682426,7.9524407,-0.035280067,8.038007,-0.09524072,8.591166,-0.050750904,8.697305,-0.049978487,7.4718437,-0.07396932,8.159428,-0.08338964,8.3646965,-0.045261957,6.4130554,-0.10999548,7.964909,-0.12751928,6.9391484,-0.070292376,7.666846,-0.09252508,6.539162,-0.12073487,7.109105,-0.15780225,6.554533,-0.18677899,5.8391137,-0.20722553,6.7890005,-0.16935606,7.0916657,-0.12834197,6.1557875,-0.27559212,5.880545,-0.24022579
2026-03-04 19:21:58.140322,444.12,43823.26,7.416341304779053,6.0600495,0.3053243,6.13535,0.30806586,6.3794885,0.2718108,7.90612,0.15076269,6.5912657,0.14236028,6.3259397,0.22005676,6.2541385,0.2698921,6.4070907,0.2151397,6.8305063,0.18876794,6.195322,0.15462843,8.047801,0.06524499,7.8055844,0.107273474,7.2464824,0.10482842,7.120367,0.09029306,7.55274,0.1049208,9.337788,0.066502765,6.934377,0.03509866,6.550544,0.043396264,6.793127,0.093824804,8.295128,0.0653239,7.944094,0.0869241,8.325575,0.01846487,6.9795556,0.024210446,7.0563874,0.04033312,9.189373,-0.0055179396,8.331721,-0.021428308,7.5580893,-0.018087462,9.631068,-0.022052389,8.350538,0.012234373,9.139789,-0.0008605702,7.300568,-0.041235425,8.557821,-0.057342954,8.505162,-0.08841741,7.9671435,-0.042756513,7.9542675,-0.097353876,8.4382105,-0.053807683,8.793011,-0.064862125,7.4565473,-0.08801883,8.0616255,-0.09745749,8.415867,-0.045682847,6.3136907,-0.10740145,8.016296,-0.13045135,6.8628707,-0.0783996,7.8594337,-0.09509451,6.582865,-0.11608844,7.1430163,-0.14987297,6.504548,-0.18106441,5.775738,-0.21193829,6.651553,-0.1725963,7.205431,-0.13662593,6.0927553,-0.2922509,5.9159145,-0.25118607
2026-03-04 19:21:58.150491,444.12,43823.26,7.424865245819092,6.1713443,0.3238444,6.034847,0.32902482,6.552347,0.29325634,7.753201,0.16988215,6.7981987,0.16714184,6.2000713,0.23237646,6.21481,0.28612787,6.449964,0.23550916,6.797649,0.20388229,6.3424997,0.17199908,8.085188,0.09061412,7.7478976,0.13292462,7.311842,0.12825067,7.137051,0.09959865,7.376059,0.122015856,9.51891,0.07241569,6.721615,0.04863404,6.666808,0.053243384,6.6218987,0.10862472,8.275335,0.072986215,7.9348135,0.09156054,8.391353,0.024415368,7.1245394,0.040469144,7.083674,0.053220622,9.190212,0.0048718434,8.26352,-0.0074591897,7.3980956,-0.024952393,9.884736,-0.01547378,8.208795,0.011719086,9.236997,-0.0027159164,6.978948,-0.047864188,8.626031,-0.057419132,8.451335,-0.09188307,8.0082,-0.031071732,7.9079447,-0.10582401,8.643986,-0.05038274,8.814639,-0.053263266,7.4373884,-0.0716475,8.120963,-0.09000727,8.263377,-0.039988663,6.5328417,-0.12902825,7.910558,-0.14722867,6.98472,-0.08262491,7.657823,-0.09507925,6.6630855,-0.13450174,7.113209,-0.17018189,6.6619477,-0.18964215,5.737693,-0.2290507,6.8478613,-0.17995963,7.194264,-0.13854742,6.140883,-0.30027565,5.90099,-0.2567598
2026-03-04 19:21:58.165335,444.12,43823.26,7.437912464141846,6.046557,0.31906757,6.1674185,0.31547523,6.3924527,0.28470138,7.9764147,0.16001935,6.589541,0.15041329,6.3499002,0.23099762,6.28997,0.26585266,6.3750553,0.20634238,6.8954725,0.19272262,6.063474,0.16293764,8.057464,0.078245856,7.750617,0.12713122,7.3533125,0.12078275,7.2392745,0.104800016,7.6858735,0.109115265,9.27044,0.07117765,6.9019785,0.047078833,6.5687733,0.04988861,6.8474855,0.09862691,8.363594,0.062017903,7.939843,0.078063,8.387609,0.013412383,6.9115624,0.036586758,7.0618567,0.054138288,9.180175,0.0037396809,8.462964,-0.008409157,7.6422176,-0.02225414,9.5377655,-0.012053499,8.374854,0.015402787,9.13728,0.002595625,7.3801627,-0.03090891,8.608383,-0.061226327,8.586572,-0.09019715,7.886105,-0.043325823,8.037609,-0.09164696,8.347766,-0.04875273,8.782609,-0.052322213,7.477311,-0.06848838,8.145072,-0.08049721,8.540904,-0.04197217,6.2316175,-0.10608419,8.013936,-0.12670298,6.901699,-0.07010014,7.968835,-0.0839755,6.5969577,-0.12365078,7.246872,-0.16058446,6.487891,-0.18583159,5.829623,-0.20810181,6.585823,-0.16528651,7.2288785,-0.11858686,6.093892,-0.27282774,5.97175,-0.23497705
2026-03-04 19:21:58.170285,444.12,43823.26,7.43550443649292,6.1553206,0.34233612,6.0594206,0.33470115,6.4989986,0.30599836,7.7882957,0.18350735,6.730446,0.16647896,6.150966,0.2404487,6.168305,0.28255183,6.445927,0.22112605,6.806949,0.20758286,6.402408,0.17101261,8.101089,0.09768458,7.7719617,0.13881692,7.2857647,0.13874213,7.161411,0.11350946,7.4006,0.116499275,9.547395,0.086753935,6.798726,0.06256255,6.668812,0.062539466,6.6010065,0.11014146,8.232659,0.0735407,7.9609857,0.08506208,8.417519,0.02503791,7.174942,0.03855871,7.030248,0.06538562,9.255365,0.015222142,8.2685995,0.000427251,7.411132,-0.02313361,9.855446,-0.0068718838,8.233053,0.021437414,9.272499,0.0038324741,7.0869913,-0.029833259,8.570844,-0.057290584,8.4668865,-0.08874016,8.068049,-0.040661488,7.9712873,-0.09764399,8.706872,-0.04198871,8.783565,-0.04285805,7.4698153,-0.06265443,8.124673,-0.08514322,8.291184,-0.04012953,6.518029,-0.10477781,7.9979167,-0.13184106,7.0272646,-0.06885358,7.6914463,-0.08904794,6.5914955,-0.12714545,7.109024,-0.16385499,6.6437545,-0.19990686,5.778788,-0.21682848,6.8934135,-0.17407835,7.1726594,-0.122094795,6.149756,-0.27465367,5.8762875,-0.24645732
2026-03-04 19:21:58.180304,444.12,43823.26,7.447729110717773,6.0785356,0.33475325,6.0805616,0.32470024,6.465098,0.29202458,7.931809,0.17519604,6.6978207,0.15767518,6.269175,0.24044204,6.181961,0.26975724,6.432021,0.20802723,6.8007164,0.19941492,6.3373246,0.16463895,8.1272,0.092957735,7.829891,0.14691378,7.2918406,0.14732514,7.1425996,0.11759169,7.462409,0.10756455,9.486034,0.081391476,6.9097815,0.060828786,6.5962267,0.047094006,6.7560463,0.10286495,8.284888,0.063576214,8.002957,0.07862171,8.367225,0.024738906,7.1192975,0.0411724,7.104637,0.071970955,9.237354,0.022454033,8.326926,0.011293742,7.471018,-0.028646566,9.769937,-0.008343045,8.379377,0.023520052,9.19483,0.0018547478,7.172547,-0.03187117,8.608096,-0.061455663,8.485366,-0.08685369,8.052011,-0.03553193,7.9485774,-0.10090836,8.601852,-0.04341728,8.806669,-0.036241446,7.498292,-0.051308185,8.094792,-0.06934928,8.372067,-0.04068607,6.4347944,-0.105255276,8.066744,-0.12848474,6.9455194,-0.06877733,7.83072,-0.08676995,6.6460824,-0.13180593,7.115551,-0.16288328,6.662055,-0.1938245,5.7579536,-0.21981776,6.8065777,-0.16431771,7.241095,-0.11231124,6.1554046,-0.26542678,5.8436656,-0.23160629
2026-03-04 19:21:58.185391,444.12,43823.26,7.444339275360107,6.076808,0.32368952,6.185328,0.31755933,6.3641133,0.28273562,7.9916453,0.15822925,6.6115837,0.14983404,6.3320937,0.22737363,6.2055154,0.28160554,6.4678698,0.21365552,6.8823466,0.20203055,6.145373,0.16335215,8.019777,0.07538985,7.7592316,0.12564814,7.3302536,0.12561345,7.245029,0.095622934,7.680413,0.10507635,9.323171,0.0707059,6.9633317,0.04432431,6.537087,0.036263943,6.778325,0.096375965,8.272286,0.06786668,7.9819336,0.08626209,8.412659,0.021244172,6.940443,0.037372444,7.0224624,0.04515924,9.218616,-0.00044791665,8.436007,-0.009453221,7.633656,-0.029557703,9.6621,-0.021170253,8.415173,0.007910034,9.131993,-0.0027842186,7.2295866,-0.044393558,8.556597,-0.06344169,8.5427,-0.08562065,7.9784694,-0.03717686,7.9982686,-0.10134664,8.440243,-0.053622458,8.752134,-0.062458005,7.492564,-0.07549773,8.209005,-0.09603408,8.505132,-0.04938504,6.338804,-0.12036684,8.05358,-0.14152272,6.8965464,-0.08353706,7.87915,-0.0961595,6.5814176,-0.12170133,7.188014,-0.1629278,6.6094527,-0.19147429,5.7907176,-0.21631347,6.6756988,-0.17125113,7.23141,-0.13609353,6.1754403,-0.28875187,5.954111,-0.24712372
2026-03-04 19:21:58.195410,444.12,43823.26,7.460141658782959,6.0434384,0.3205733,6.210203,0.3112791,6.3501215,0.27745235,8.080053,0.16003439,6.599163,0.13903481,6.4039845,0.23122646,6.264611,0.26371866,6.4229875,0.19476575,6.8159356,0.19843522,6.1335573,0.16117549,8.101352,0.06950122,7.839027,0.121612795,7.3551245,0.11899303,7.184003,0.09716543,7.65616,0.101610266,9.276936,0.07187211,7.0236053,0.045046713,6.5775585,0.040359743,6.909771,0.101319,8.343673,0.062075324,7.948129,0.077148065,8.392738,0.024054883,6.946585,0.03309895,7.082117,0.04788232,9.249825,0.00076050527,8.451957,-0.005935311,7.6360745,-0.031489808,9.595865,-0.015501848,8.474115,0.011946695,9.138558,-0.002071883,7.419709,-0.02915445,8.622516,-0.06289091,8.564859,-0.08977677,8.00822,-0.044275265,8.019141,-0.08993185,8.425157,-0.048534647,8.804967,-0.060624767,7.526442,-0.06703669,8.10545,-0.084097855,8.503953,-0.052682288,6.24526,-0.108653426,8.117057,-0.13232362,6.872901,-0.07993144,8.003275,-0.08719974,6.598254,-0.11681166,7.1699514,-0.16172716,6.562946,-0.18656446,5.8057714,-0.210358,6.6677485,-0.16775896,7.292499,-0.12437716,6.160016,-0.2713396,5.92404,-0.24102716
2026-03-04 19:21:58.200548,444.12,43823.26,7.4433674812316895,6.0780044,0.33477226,6.167002,0.32366478,6.3972406,0.30210575,7.9234653,0.17931171,6.656504,0.16263992,6.34075,0.23599537,6.179112,0.2772174,6.447628,0.20727913,6.821335,0.20933445,6.168312,0.16048485,8.072073,0.08688333,7.7668033,0.12516731,7.3230963,0.1266392,7.220189,0.11041057,7.6041565,0.10829575,9.380513,0.08459899,6.90542,0.06265363,6.558516,0.059370693,6.804416,0.099313386,8.322964,0.07228773,7.9660826,0.07541383,8.401781,0.02582233,6.9929547,0.028239474,7.0626717,0.06476971,9.190375,0.004395168,8.41697,-0.007596849,7.5803933,-0.024168834,9.65174,-0.0055070473,8.378793,0.025740765,9.104069,0.00932256,7.255185,-0.041502524,8.607194,-0.060346868,8.5119505,-0.089342564,7.9951987,-0.04677617,7.9543204,-0.09865897,8.472767,-0.05207563,8.847091,-0.049950976,7.4688234,-0.07683817,8.154157,-0.080464646,8.404497,-0.0444068,6.3996353,-0.11037534,8.036857,-0.12769623,6.8547473,-0.06348565,7.9204164,-0.0962465,6.646237,-0.12151308,7.179278,-0.16859497,6.5849814,-0.20247342,5.755097,-0.21830551,6.6879544,-0.1793399,7.3062506,-0.12572621,6.133749,-0.28000113,5.99538,-0.24940565
2026-03-04 19:21:58.205346,444.12,43823.26,7.456860065460205,6.064522,0.3242844,6.1603575,0.3268858,6.3895845,0.29246122,8.000088,0.16812076,6.6964097,0.15925637,6.339807,0.22951418,6.1944084,0.27768943,6.4980993,0.2234183,6.7908792,0.2052522,6.243377,0.16699171,8.102356,0.089671075,7.8043,0.124518625,7.331966,0.12870017,7.1747103,0.10402961,7.5730753,0.11385043,9.375,0.07976588,7.003996,0.059870828,6.584493,0.05403673,6.757841,0.09498219,8.306316,0.06902571,8.010282,0.08543566,8.36769,0.021596938,7.0283847,0.033049654,7.036345,0.055826828,9.248261,0.00086130406,8.41629,-0.0045291744,7.521409,-0.031971056,9.696635,-0.014224969,8.458745,0.025954524,9.145255,0.00889305,7.2786827,-0.04313633,8.641639,-0.059944097,8.48602,-0.08794021,8.016759,-0.039025545,7.970962,-0.106456555,8.533865,-0.051273365,8.854897,-0.042233482,7.528297,-0.07293977,8.132699,-0.07778871,8.4288645,-0.043902665,6.3423877,-0.11670605,8.101846,-0.12756276,6.909243,-0.06587393,7.8530145,-0.09807431,6.656254,-0.13033482,7.1043444,-0.1650063,6.670164,-0.19155848,5.7869654,-0.22035547,6.7732115,-0.18006983,7.277833,-0.12234759,6.16333,-0.28939587,5.924573,-0.24375151
2026-03-04 19:21:58.210360,444.12,43823.26,7.462228775024414,5.985069,0.3049933,6.2203746,0.3073607,6.3496013,0.26630047,8.097822,0.14697471,6.6093082,0.14324726,6.4589605,0.21842141,6.2928395,0.26532856,6.4254665,0.22086053,6.8111672,0.18764897,6.0394607,0.16063328,8.07063,0.063174024,7.776446,0.10828808,7.4040465,0.10835887,7.190041,0.079891406,7.764767,0.101926945,9.259781,0.054840263,7.028347,0.025641227,6.544132,0.03598356,6.9243364,0.09229368,8.379262,0.06424599,7.9415207,0.08742518,8.354528,0.013479623,6.839789,0.030160591,7.002861,0.03676946,9.237884,-0.015832003,8.534608,-0.020588594,7.6822996,-0.022462467,9.531583,-0.03184456,8.504766,-0.0032252064,9.102697,-0.009647584,7.424091,-0.05212579,8.656623,-0.065926105,8.586452,-0.08663435,7.9274664,-0.038500357,8.043211,-0.10237745,8.34809,-0.057286277,8.878835,-0.07370718,7.508388,-0.092465274,8.149745,-0.1059657,8.575087,-0.054903004,6.2494545,-0.12405267,8.114403,-0.14742553,6.8663163,-0.08755057,8.038287,-0.10562603,6.6668663,-0.11945616,7.2260094,-0.15922599,6.523506,-0.18416104,5.8392158,-0.22642402,6.6468472,-0.18073791,7.2961836,-0.14622694,6.1470194,-0.30019763,5.9594073,-0.25658092
2026-03-04 19:21:58.225366,444.12,43823.26,7.477805137634277,6.079634,0.3441163,6.0883875,0.33276778,6.4628973,0.31164882,7.9772215,0.18204817,6.7448153,0.18140645,6.29545,0.2383391,6.2300706,0.2801237,6.44496,0.21705563,6.8062067,0.20778583,6.3153872,0.16577618,8.088552,0.095162004,7.830912,0.12677404,7.3509436,0.12157403,7.1942987,0.11826939,7.5302877,0.11994502,9.40506,0.08746455,6.9279094,0.05796483,6.7168436,0.071668446,6.738114,0.113259204,8.338742,0.0720424,7.9795413,0.08933637,8.412308,0.024512954,7.157363,0.030552646,7.0751796,0.06106243,9.318678,0.008931312,8.425502,-0.005182934,7.5123296,-0.021314705,9.730599,-0.007899632,8.383767,0.023059642,9.28656,0.010537218,7.2145934,-0.031221325,8.653867,-0.053180236,8.555405,-0.09407035,8.030902,-0.0409728,8.020746,-0.09188708,8.623576,-0.053398453,8.827534,-0.04815421,7.540407,-0.07333721,8.136516,-0.08686172,8.380888,-0.040114544,6.4697394,-0.10180775,8.024227,-0.13054049,7.066193,-0.06244627,7.9307876,-0.08493885,6.655014,-0.11730974,7.190192,-0.17619446,6.658186,-0.1938907,5.803313,-0.21280785,6.8279033,-0.17376229,7.2770634,-0.12682891,6.1990027,-0.28907123,5.911248,-0.24786635
2026-03-04 19:21:58.235464,444.12,43823.26,7.483979225158691,6.0811133,0.3542586,6.07548,0.350088,6.482635,0.3202875,8.010652,0.1942983,6.773537,0.18281242,6.364422,0.2430042,6.247345,0.28304595,6.4437494,0.22083835,6.7761784,0.21188535,6.336761,0.17183137,8.148978,0.10804564,7.83142,0.1432474,7.3129797,0.13728048,7.129979,0.12963377,7.4324784,0.12578438,9.47762,0.096047916,6.972959,0.07008616,6.7059727,0.0785976,6.8151536,0.11184004,8.398884,0.07180005,7.9884443,0.08954747,8.361519,0.027901452,7.164954,0.03896681,7.154877,0.07635643,9.252159,0.017793432,8.396822,0.0027770696,7.445188,-0.013979501,9.750335,-0.0004961381,8.419867,0.027762977,9.261921,0.013089077,7.255916,-0.025193017,8.697251,-0.05198817,8.517788,-0.09671063,8.029484,-0.036647804,7.94693,-0.09910766,8.65667,-0.040953062,8.951523,-0.03826824,7.532211,-0.06024464,8.105125,-0.07013192,8.364844,-0.026486449,6.463005,-0.10849831,8.069959,-0.1268917,7.043209,-0.055857822,7.9298816,-0.086673714,6.741043,-0.1302614,7.165017,-0.17176133,6.7047677,-0.196869,5.7671146,-0.2103695,6.833763,-0.17159036,7.338942,-0.121117085,6.154613,-0.27880272,5.8835297,-0.24304226
2026-03-04 19:21:58.240462,444.12,43823.26,7.498991012573242,6.108692,0.34313712,5.972626,0.33634233,6.5660734,0.3161698,7.9772863,0.18290646,6.921878,0.16514497,6.3201985,0.24842635,6.257902,0.28889433,6.4545746,0.21465668,6.748446,0.22153284,6.496542,0.16300085,8.233221,0.08556107,7.860527,0.1306282,7.389874,0.12674227,7.1152496,0.1116724,7.325415,0.110737495,9.585451,0.084653005,6.900139,0.059454214,6.8004966,0.051599674,6.728602,0.10406311,8.389095,0.075772405,7.9859347,0.07935131,8.3850155,0.029002277,7.2857184,0.031866115,7.1664414,0.053931475,9.243369,-0.002293738,8.328769,-0.012814496,7.3423567,-0.032427892,9.907848,-0.012246156,8.335687,0.016525,9.356461,-0.0013364138,7.1591063,-0.040018834,8.771047,-0.06025298,8.495961,-0.096620925,8.146024,-0.04293513,7.9550586,-0.10810342,8.803868,-0.054326683,8.946026,-0.055870287,7.5632544,-0.07790965,8.093586,-0.0925418,8.280503,-0.048823062,6.5758185,-0.1227031,8.049407,-0.14612502,7.1361732,-0.07752129,7.799876,-0.0935694,6.737164,-0.13461919,7.120693,-0.17362534,6.694805,-0.20600766,5.70717,-0.22728644,7.0165024,-0.18985076,7.430888,-0.13708158,6.1832614,-0.29499415,5.7914734,-0.26097232
2026-03-04 19:21:58.245447,444.12,43823.26,7.42181921005249,6.0986867,0.32797563,6.1437383,0.31517434,6.389925,0.2814266,7.8357015,0.16526951,6.6572304,0.15555643,6.295884,0.2321636,6.2624154,0.2715173,6.505775,0.2151397,6.7473726,0.19413894,6.2178,0.16604002,8.060484,0.090449594,7.765666,0.13550243,7.286433,0.13959403,7.0747995,0.102471404,7.484866,0.109633565,9.474212,0.06948537,6.886596,0.055422757,6.642073,0.044983298,6.814008,0.09557682,8.246561,0.064238,7.9520817,0.074606284,8.317743,0.029626537,6.980391,0.03824216,7.0520787,0.062789276,9.163701,0.015773557,8.333968,0.004080163,7.4422603,-0.026606608,9.676509,-0.009344342,8.329703,0.017527089,9.089173,0.00092933996,7.2139654,-0.040151145,8.629881,-0.058217365,8.425938,-0.08485273,8.041715,-0.040314514,7.8854375,-0.11198122,8.5112295,-0.04227925,8.877712,-0.04877201,7.5450096,-0.053455163,8.141529,-0.07237935,8.337007,-0.047859807,6.3710027,-0.11230062,7.9975724,-0.12831053,6.832797,-0.076170795,7.82381,-0.09206026,6.666801,-0.12701747,7.128179,-0.15574972,6.6197667,-0.1921002,5.7493787,-0.22152698,6.698737,-0.16347677,7.224725,-0.12521517,6.1010904,-0.26560307,5.883474,-0.22969869
2026-03-04 19:21:58.255442,444.12,43823.26,7.502566337585449,6.1041574,0.34590122,6.091727,0.3290351,6.497364,0.30329895,8.0094185,0.17415886,6.8560877,0.17112897,6.3065233,0.2371454,6.1542845,0.28629908,6.4791274,0.23724309,6.7967253,0.22476237,6.3943195,0.1584751,8.124259,0.08753648,7.8184886,0.13624251,7.3682013,0.12891582,7.2339334,0.10273161,7.497005,0.11462531,9.554463,0.08301432,6.9427958,0.054152336,6.7785835,0.056112938,6.722184,0.10894719,8.264997,0.07645716,7.996633,0.093717895,8.470905,0.028793307,7.191041,0.033263277,7.027141,0.054055177,9.3448305,-0.0011334339,8.380637,-0.0054254574,7.5332217,-0.029370908,9.886442,-0.017871127,8.42841,0.017233906,9.338712,-0.0015357916,7.141076,-0.049612004,8.67256,-0.06055314,8.484616,-0.091449186,8.148146,-0.03374534,8.082631,-0.0983918,8.718527,-0.05320057,8.864347,-0.055215303,7.5330634,-0.08383696,8.199036,-0.096551545,8.426897,-0.050216988,6.5239663,-0.13387746,8.095907,-0.14306423,7.1051884,-0.07783965,7.772331,-0.09320759,6.647622,-0.1225423,7.190228,-0.17592941,6.710954,-0.20072912,5.803421,-0.21548288,6.9776115,-0.17839496,7.300709,-0.12784901,6.26573,-0.29891193,5.8762746,-0.25369057
2026-03-04 19:21:58.270462,444.12,43823.26,7.530393123626709,6.054911,0.31514674,6.2423234,0.31225067,6.421327,0.27417362,8.227037,0.14626595,6.6548433,0.14573933,6.4273405,0.2239599,6.2376533,0.26216763,6.4012055,0.22180457,6.86692,0.1945201,6.177436,0.15547483,8.142618,0.07588805,7.7919,0.12853234,7.5276475,0.12444961,7.3112054,0.09238726,7.8230104,0.10580067,9.367422,0.06070748,7.0636106,0.03218194,6.6346183,0.038092688,6.9414434,0.091085516,8.339985,0.059745874,7.9552865,0.087286815,8.508861,0.015127964,6.9313726,0.039251372,7.1554585,0.05323616,9.287515,0.0038735128,8.6765,-0.0013354357,7.851085,-0.032908134,9.630221,-0.026019577,8.51737,0.0030736567,9.2317,-0.0050233994,7.438136,-0.04152593,8.695482,-0.06787096,8.631224,-0.08788693,8.015439,-0.03647156,8.201254,-0.09539009,8.458696,-0.049727835,8.872553,-0.052033365,7.530163,-0.06785416,8.297972,-0.08818708,8.681508,-0.052244853,6.3184886,-0.12345176,8.13859,-0.13643695,7.038111,-0.074589096,8.114051,-0.09009651,6.6914444,-0.11852674,7.2553596,-0.15820484,6.6016617,-0.17783844,5.8732023,-0.21348381,6.67572,-0.15909968,7.406187,-0.11887212,6.1906652,-0.280815,6.0546775,-0.23237893
2026-03-04 19:21:58.280514,444.12,43823.26,7.536406517028809,6.103496,0.34877837,6.1425056,0.33943272,6.467056,0.31863248,8.115641,0.17888458,6.786847,0.16514745,6.2454085,0.24226722,6.1634836,0.26813138,6.4163647,0.2187055,6.919644,0.21409248,6.3524904,0.15760915,8.114404,0.08903247,7.8448095,0.13647301,7.462855,0.1335053,7.369338,0.11284073,7.684197,0.10889759,9.43087,0.09011707,6.9902034,0.064015545,6.7939196,0.06211687,6.7495785,0.10629394,8.328964,0.070214935,7.9630146,0.07927065,8.562063,0.02721256,7.1333303,0.034284793,7.0503,0.063455276,9.382734,0.0122145265,8.583806,0.003902175,7.717188,-0.03147819,9.802162,-0.0053799707,8.448332,0.023219865,9.359853,0.0044483487,7.2152042,-0.03465101,8.598525,-0.06480727,8.639677,-0.0890833,8.100621,-0.04146711,8.278082,-0.09422358,8.677707,-0.05258871,8.857433,-0.041032564,7.5928965,-0.066746235,8.359635,-0.08294328,8.603539,-0.047777798,6.472957,-0.10483343,8.082789,-0.12745962,7.246339,-0.068851635,7.8735504,-0.092732646,6.6319523,-0.119409375,7.1894035,-0.16727784,6.603252,-0.20033081,5.943453,-0.2140008,6.882257,-0.16991986,7.3075767,-0.11402868,6.2426033,-0.2690579,6.008771,-0.24677342
2026-03-04 19:21:58.285543,444.12,43823.26,7.552422523498535,6.096424,0.34529787,6.076459,0.33304298,6.5125318,0.31488734,8.169815,0.17892142,6.8282533,0.17494655,6.3899937,0.23985603,6.1985908,0.27251133,6.507696,0.22807199,6.7842746,0.21129851,6.474113,0.15426123,8.284323,0.08883174,7.8707952,0.13269784,7.461323,0.124566644,7.198436,0.108484216,7.5040145,0.11640719,9.540049,0.08676278,7.0354977,0.060707778,6.812868,0.062030997,6.8466115,0.10441334,8.364481,0.07690425,8.01131,0.08255551,8.462339,0.026937574,7.196954,0.03557406,7.161167,0.061440602,9.317224,0.0012443173,8.531311,-0.007365761,7.5568814,-0.020245621,9.855329,-0.014588127,8.467121,0.021393431,9.399211,0.0069168285,7.3353214,-0.038263798,8.804067,-0.060364902,8.58041,-0.09051545,8.172425,-0.03552324,8.033088,-0.09865918,8.784284,-0.049224418,8.980354,-0.04612328,7.562383,-0.07428349,8.217331,-0.088854216,8.488431,-0.04133088,6.5654483,-0.11956119,8.111933,-0.13075398,7.2028427,-0.0661594,7.982842,-0.090601556,6.7379475,-0.11450395,7.161678,-0.173199,6.788385,-0.20547603,5.800802,-0.2118162,6.9540105,-0.17540863,7.475854,-0.12005677,6.184846,-0.2920008,5.8858967,-0.2400573
2026-03-04 19:21:58.290489,444.12,43823.26,7.5481719970703125,6.148288,0.35284784,5.988232,0.3337355,6.599276,0.31895915,8.011379,0.18706812,6.916499,0.17209964,6.2930365,0.23702542,6.199008,0.28448722,6.492823,0.24535513,6.842698,0.22851591,6.5695744,0.16102518,8.310503,0.09734577,7.872538,0.15233216,7.4479265,0.14653467,7.1927943,0.112956725,7.37357,0.11776187,9.628066,0.08869348,6.934192,0.06327692,6.8804803,0.05914164,6.705723,0.105576076,8.3276005,0.0771347,7.9877195,0.092580356,8.486161,0.03408925,7.3469825,0.03584903,7.204199,0.064509824,9.329272,0.01576301,8.436946,0.0060411897,7.447597,-0.023929995,10.012014,-0.010346517,8.415721,0.022903327,9.483469,-0.00033243204,7.1565547,-0.045880932,8.779242,-0.06839116,8.583835,-0.08709922,8.235657,-0.033638198,8.053894,-0.10221691,8.856443,-0.04608123,8.978554,-0.040562034,7.550158,-0.068154715,8.250906,-0.088940755,8.399926,-0.046913818,6.704771,-0.12911062,8.050657,-0.13874915,7.233351,-0.07092938,7.8066983,-0.09773758,6.7458973,-0.12366231,7.1278152,-0.16960204,6.734549,-0.20526683,5.7418227,-0.21175772,7.0554967,-0.17729865,7.4494886,-0.12189625,6.235226,-0.27800056,5.8896966,-0.24438693
2026-03-04 19:21:58.295480,444.12,43823.26,7.55977201461792,6.0238867,0.33254543,6.1756363,0.32436758,6.4598413,0.29256773,8.2088175,0.15762508,6.73995,0.15743573,6.437316,0.22540833,6.1940784,0.28104016,6.4590077,0.24149737,6.826882,0.1994377,6.397805,0.15907267,8.3153515,0.08103445,7.8950133,0.12385736,7.4641356,0.11406941,7.144628,0.09470549,7.655378,0.11054871,9.543337,0.06787844,7.1199203,0.029982716,6.784201,0.041786134,6.8970685,0.091357976,8.328879,0.07267433,8.042057,0.09644067,8.482371,0.01536604,7.1784763,0.035819586,7.2232738,0.043571405,9.356519,-0.005964603,8.586907,-0.013655788,7.63521,-0.024508258,9.789971,-0.031100662,8.541969,0.00511253,9.305643,-0.012417521,7.3734365,-0.04852394,8.753839,-0.06350858,8.562907,-0.0884262,8.197305,-0.03371501,8.123951,-0.10940729,8.767654,-0.05076427,8.984353,-0.05678523,7.5626373,-0.08965971,8.219116,-0.10381592,8.546104,-0.04915529,6.498106,-0.14113346,8.236929,-0.1492758,7.112956,-0.088578165,8.012022,-0.10646005,6.7550826,-0.117733106,7.1607056,-0.16274703,6.761949,-0.19154817,5.7720804,-0.22127822,6.9182386,-0.17591593,7.471496,-0.13705651,6.186835,-0.3021069,5.916898,-0.24932706
2026-03-04 19:21:58.302807,444.12,43823.26,7.556609630584717,6.0358186,0.31876853,6.114446,0.31797197,6.4584937,0.28125316,8.211732,0.15147284,6.754158,0.14575283,6.381487,0.22553095,6.215055,0.2731904,6.4386773,0.23395468,6.8909144,0.21242042,6.3603477,0.15033686,8.201169,0.06490824,7.8805904,0.118579544,7.4779744,0.120274164,7.2803817,0.086830586,7.6816983,0.104078814,9.399115,0.061127268,7.0537863,0.034341585,6.834298,0.033440486,6.8445177,0.091765635,8.320314,0.063857585,7.9929547,0.090262584,8.516517,0.022778466,7.1052523,0.037275366,7.1309824,0.040686898,9.378094,-0.012019028,8.647928,-0.008367699,7.7322874,-0.030704502,9.761819,-0.029664787,8.55844,0.0015490846,9.389608,-0.014981208,7.3979526,-0.059889935,8.67658,-0.06929391,8.628957,-0.084866025,8.157456,-0.03357884,8.192721,-0.102594644,8.69107,-0.0629247,8.942729,-0.06525067,7.5974874,-0.0911808,8.265656,-0.10474381,8.6435585,-0.05980799,6.431889,-0.13280554,8.157892,-0.15081711,7.189683,-0.084591895,8.038655,-0.10904401,6.676496,-0.11720632,7.214972,-0.15936932,6.6714306,-0.18490753,5.836026,-0.21077715,6.9039235,-0.17959775,7.4001665,-0.14139016,6.220481,-0.29284993,5.9590483,-0.25414178
2026-03-04 19:21:58.306980,444.12,43823.26,7.580902576446533,6.046646,0.35345423,6.1037374,0.3424792,6.4461126,0.31993473,8.225712,0.18284258,6.7851067,0.18008497,6.4435616,0.24297789,6.215843,0.26610795,6.5069227,0.22983968,6.824919,0.21150601,6.4594193,0.15503393,8.312106,0.09790259,7.918558,0.13849498,7.4548326,0.13689446,7.2069073,0.121436946,7.513893,0.120654024,9.500581,0.084634796,7.1559224,0.061500344,6.8263993,0.07368342,6.963778,0.10196972,8.363053,0.07066967,8.03181,0.0814478,8.449482,0.022783376,7.1824756,0.03427004,7.194919,0.07060681,9.440487,0.012490717,8.56235,0.0021361858,7.637006,-0.023281565,9.807083,-0.011315753,8.637191,0.02581715,9.422198,0.0083873365,7.436131,-0.038725965,8.806051,-0.0663857,8.55881,-0.09214641,8.229939,-0.0345602,8.134485,-0.103682965,8.79112,-0.04784077,9.042603,-0.037363853,7.6219597,-0.06679516,8.164992,-0.089827985,8.551445,-0.0359559,6.5061307,-0.11310401,8.290053,-0.1329849,7.2006793,-0.06266206,8.078571,-0.09558216,6.774442,-0.11632553,7.163189,-0.1756421,6.792165,-0.20058021,5.7767444,-0.2120277,6.966332,-0.17521864,7.515473,-0.11655981,6.2447176,-0.27404252,5.921873,-0.24236798
2026-03-04 19:21:58.320665,444.12,43823.26,7.58824348449707,6.035206,0.33260182,6.1168647,0.33711085,6.4508796,0.3130557,8.247944,0.17585772,6.7597966,0.1642299,6.475898,0.2370115,6.208432,0.27800474,6.511011,0.24455424,6.795844,0.21623541,6.49281,0.15854833,8.372887,0.08518928,7.9313273,0.13684706,7.4342074,0.12851879,7.1746244,0.101908155,7.583787,0.11326105,9.513142,0.0799822,7.142606,0.049326,6.8346047,0.055819456,6.9689546,0.08921533,8.358436,0.07213413,7.9898086,0.091407895,8.519403,0.026995659,7.171025,0.03126244,7.2883377,0.052413333,9.399478,0.0026899958,8.584395,-0.012152504,7.630913,-0.025118032,9.798311,-0.024541132,8.61805,0.010683442,9.386197,-0.011503797,7.4293265,-0.056891546,8.823341,-0.067224495,8.556085,-0.09175127,8.305078,-0.033861235,8.149941,-0.10532265,8.7661085,-0.050564803,9.078634,-0.054232344,7.598972,-0.08147486,8.2135105,-0.10225912,8.582067,-0.046479743,6.519677,-0.13073006,8.255091,-0.1495737,7.2298408,-0.07950308,8.101401,-0.10911217,6.782599,-0.11854164,7.1105204,-0.16641998,6.808366,-0.19796158,5.7742496,-0.2196165,6.9466863,-0.1878964,7.5339637,-0.13192952,6.2478666,-0.29643366,5.9801745,-0.25528395
2026-03-04 19:21:58.325608,444.12,43823.26,7.597830772399902,6.095985,0.33961192,6.0410237,0.33865646,6.514886,0.31127703,8.267428,0.18400182,6.866683,0.16378863,6.460325,0.2406882,6.249473,0.27615884,6.488213,0.24083683,6.769269,0.20774621,6.532214,0.16455443,8.371699,0.09065571,7.901153,0.14343865,7.45396,0.14404544,7.1927395,0.109879024,7.4632387,0.112323515,9.557517,0.07470021,7.08895,0.054466907,6.8988967,0.051449582,6.922468,0.0953029,8.414382,0.0651219,8.004142,0.08863441,8.516658,0.022859097,7.2628045,0.042456273,7.2810373,0.05928161,9.357025,0.0049087997,8.607335,0.0042006364,7.556207,-0.031479027,9.916733,-0.027816677,8.591753,0.0116959885,9.446518,-0.011935878,7.3657737,-0.054519217,8.915814,-0.06753321,8.566343,-0.08600662,8.242192,-0.031372193,8.133718,-0.11064233,8.8299465,-0.04615113,9.05733,-0.04830554,7.6101627,-0.07171916,8.277866,-0.098736234,8.493238,-0.056710437,6.6443906,-0.14432411,8.218456,-0.1521667,7.238054,-0.081224054,8.0411005,-0.1162378,6.8963194,-0.1259511,7.17908,-0.16870019,6.8159285,-0.19963431,5.8196077,-0.23269045,7.011335,-0.18290618,7.5447316,-0.13176833,6.176847,-0.29377234,5.9182386,-0.24181154
2026-03-04 19:21:58.330721,444.12,43823.26,7.600160598754883,6.072246,0.3304791,6.226708,0.32634342,6.4227676,0.30293253,8.374594,0.16758534,6.771466,0.16097574,6.5281944,0.23271364,6.2029824,0.26705596,6.4652963,0.2218502,6.850594,0.20860901,6.357562,0.14980364,8.2466135,0.07420514,7.8811765,0.116562456,7.4943333,0.11496932,7.2908006,0.10183972,7.7231307,0.1057794,9.413412,0.07351247,7.2214546,0.04802085,6.792277,0.053991158,7.036553,0.09619335,8.3737955,0.06811933,7.971903,0.08301087,8.532648,0.022880884,7.107076,0.03345065,7.200956,0.056175727,9.484888,-0.005648418,8.689214,-0.0041960375,7.7674456,-0.030194318,9.707905,-0.018491419,8.729104,0.017162513,9.3591385,0.001917333,7.464405,-0.04417865,8.8039255,-0.067087464,8.648873,-0.09008451,8.217885,-0.041004144,8.203124,-0.09619967,8.69407,-0.059895236,9.018366,-0.050213408,7.630057,-0.083309054,8.307474,-0.09129561,8.70539,-0.05302791,6.457561,-0.12622502,8.270556,-0.12935613,7.1909876,-0.06924806,8.132458,-0.09723811,6.7381244,-0.114459224,7.1963606,-0.17215475,6.705534,-0.1947136,5.866801,-0.20506738,6.8822827,-0.1785998,7.529142,-0.123448804,6.2658286,-0.2876313,5.9828615,-0.24024339
2026-03-04 19:21:58.370717,444.12,43823.26,7.6441497802734375,6.113585,0.34676847,6.119204,0.34041828,6.5209303,0.31532103,8.368561,0.17319809,6.847635,0.16233242,6.4300666,0.2501298,6.2054124,0.27696565,6.4916997,0.23598495,6.8696465,0.22547951,6.572659,0.1556814,8.356204,0.081620395,7.8868217,0.1378914,7.5772905,0.1291762,7.3799553,0.108711205,7.6736283,0.11077328,9.574143,0.08519137,7.1368747,0.05056497,6.948042,0.049358476,6.9768295,0.10812188,8.335628,0.06836697,8.017014,0.08491402,8.651173,0.03424282,7.2133226,0.040252227,7.2383738,0.05680484,9.420933,0.005128855,8.732631,0.0027370322,7.8240395,-0.032475676,9.958781,-0.016763398,8.638655,0.010465167,9.520756,-0.013874327,7.337976,-0.041012187,8.831966,-0.06982503,8.667277,-0.09355316,8.270992,-0.034531683,8.3169155,-0.09734376,8.864607,-0.055231676,9.025074,-0.04886743,7.62265,-0.0654008,8.409724,-0.095119596,8.674458,-0.053342897,6.6063147,-0.12464207,8.220781,-0.14449303,7.3765006,-0.08477571,8.063004,-0.096437104,6.8142214,-0.11550924,7.1973476,-0.16704169,6.816592,-0.1995739,5.893581,-0.19927345,7.0135107,-0.17425752,7.6190867,-0.12773825,6.229245,-0.2920284,6.0234804,-0.24390113
2026-03-04 19:21:58.380678,444.12,43823.26,7.655385971069336,6.062019,0.36010066,6.1569963,0.3455094,6.491711,0.32610947,8.40815,0.18617995,6.845433,0.1641104,6.557922,0.25556964,6.275358,0.26837015,6.4564333,0.23451966,6.7971907,0.22182257,6.46987,0.15574501,8.461667,0.09048135,7.872597,0.13414207,7.6116443,0.13813439,7.2089972,0.113127455,7.696149,0.10960208,9.502864,0.089103356,7.204967,0.054679304,6.9039183,0.0516042,7.0648336,0.1136792,8.455535,0.068189226,8.041206,0.08005403,8.543369,0.028159704,7.1631947,0.03846599,7.3462763,0.06166995,9.444001,0.00888661,8.805938,0.003843433,7.769267,-0.03837993,9.882501,-0.01601474,8.74161,0.01119037,9.4620285,-0.013202212,7.5278153,-0.04075427,8.987726,-0.07249302,8.675247,-0.09604157,8.242595,-0.034457397,8.217118,-0.10080929,8.779103,-0.055137776,9.126163,-0.04709115,7.6350374,-0.07185835,8.335589,-0.09997312,8.706174,-0.054483432,6.555959,-0.13316078,8.296922,-0.14825226,7.3402314,-0.08356092,8.180973,-0.10233329,6.920194,-0.11733922,7.238933,-0.18125893,6.788465,-0.20803085,5.853595,-0.20292555,6.991357,-0.18052569,7.70865,-0.11893568,6.251057,-0.2869713,6.0175056,-0.24291313
2026-03-04 19:21:58.385663,444.12,43823.26,7.643138408660889,6.050988,0.34484714,6.2397876,0.34515494,6.383755,0.31363133,8.438,0.17462939,6.714812,0.1745079,6.517263,0.24246003,6.161396,0.2639664,6.491142,0.23645674,6.9044366,0.20769823,6.402336,0.15384711,8.362967,0.08965548,7.918167,0.13043895,7.594078,0.124352224,7.311403,0.112669624,7.830661,0.117152676,9.4437275,0.0844539,7.2556324,0.04759987,6.8301864,0.06592146,7.0101757,0.10480644,8.3464365,0.06320656,8.059527,0.093688294,8.597371,0.02372682,7.071761,0.041170094,7.2526402,0.06816076,9.431052,0.0065036975,8.798983,0.00039367998,7.930271,-0.018767789,9.823139,-0.019716367,8.740171,0.016068423,9.436571,0.006381852,7.4755874,-0.03599149,8.835551,-0.06131929,8.745382,-0.0952089,8.274581,-0.032913305,8.364099,-0.09570578,8.688018,-0.04395086,9.027139,-0.045710996,7.6069126,-0.07884083,8.421271,-0.089997254,8.861193,-0.03507275,6.469185,-0.112554386,8.309241,-0.13176645,7.2430315,-0.060893945,8.195575,-0.09474015,6.8144045,-0.11027755,7.293888,-0.168929,6.746506,-0.1879503,5.92121,-0.20563225,6.902548,-0.17189686,7.576626,-0.11045497,6.2852416,-0.27741832,6.0371637,-0.23192297
2026-03-04 19:21:58.390621,444.12,43823.26,7.6555914878845215,6.111268,0.3598906,6.063848,0.35124728,6.531018,0.3315964,8.343638,0.18660241,6.8981156,0.16904645,6.4327927,0.2531254,6.1662188,0.27762622,6.5187254,0.2514027,6.823817,0.23647057,6.6452875,0.15967873,8.486028,0.09066574,7.8834224,0.13881409,7.537186,0.13472283,7.2232,0.11528365,7.586432,0.11720508,9.665354,0.089294314,7.132284,0.053896315,6.987405,0.04701235,6.93647,0.10658555,8.350334,0.07895157,8.027503,0.091272265,8.601798,0.030860098,7.291196,0.04340106,7.3104835,0.057651494,9.471019,0.0027383,8.684636,-0.0034329386,7.7194777,-0.03511424,10.058772,-0.020332905,8.717746,0.008886432,9.533164,-0.01958938,7.336729,-0.050932195,8.904557,-0.06954864,8.57163,-0.09639803,8.395227,-0.03441456,8.239637,-0.105552375,8.957281,-0.0485358,9.103423,-0.05555258,7.571581,-0.08275822,8.377823,-0.10589466,8.64779,-0.056241773,6.720116,-0.1445908,8.31556,-0.15488292,7.3644943,-0.088143826,8.061206,-0.112591825,6.912863,-0.11866205,7.1636224,-0.17746939,6.904426,-0.21077766,5.807325,-0.20558262,7.137162,-0.18620817,7.661966,-0.13817145,6.269022,-0.30928898,5.928679,-0.25715286
2026-03-04 19:21:58.395629,444.12,43823.26,7.667918682098389,6.010804,0.32343006,6.2274714,0.3174562,6.3960323,0.28861678,8.595277,0.1454885,6.765008,0.13466552,6.557179,0.23140003,6.2776937,0.2536753,6.5034957,0.2432699,6.860629,0.20997767,6.432309,0.15426728,8.3344,0.06021745,7.965545,0.12044917,7.6123405,0.1203287,7.3232875,0.08871599,7.8717184,0.1021516,9.389811,0.060278013,7.307715,0.028807217,6.889915,0.027795952,7.1587834,0.09374065,8.3806095,0.059552647,8.017745,0.0913368,8.607264,0.018330539,7.1004667,0.046248313,7.2344728,0.042639438,9.484864,-0.005287161,8.89911,-0.0047512376,7.9667697,-0.030859599,9.760079,-0.036348976,8.876792,-0.0060488447,9.447449,-0.024081206,7.556075,-0.05518101,8.91957,-0.07235474,8.7040825,-0.08674915,8.2839,-0.029184436,8.3766365,-0.10314889,8.69454,-0.05509511,9.066024,-0.06337225,7.6565423,-0.082791865,8.428293,-0.109233774,8.910128,-0.05925208,6.3870344,-0.15480833,8.351278,-0.15996751,7.2632594,-0.09509689,8.276878,-0.101102866,6.809294,-0.10310034,7.2478867,-0.16137385,6.788441,-0.18496765,5.932034,-0.19755925,6.86562,-0.17536232,7.6608043,-0.13160846,6.2380457,-0.29398912,6.0603952,-0.24107616
2026-03-04 19:21:58.400815,444.12,43823.26,7.6755805015563965,6.084875,0.35356176,6.1009674,0.35043967,6.4842296,0.32619798,8.39933,0.17980312,6.794339,0.17315756,6.490158,0.2430071,6.220124,0.27913767,6.4784536,0.24072938,6.849383,0.23429449,6.614968,0.14383386,8.520809,0.083622225,7.9272933,0.124988005,7.5781136,0.114819124,7.2830625,0.10527303,7.6649084,0.1132998,9.61041,0.096213296,7.2063446,0.05747205,7.0040603,0.06487104,7.0453734,0.09766309,8.393782,0.074188076,8.093159,0.08839645,8.601657,0.028910397,7.2227335,0.027218146,7.3516936,0.054850273,9.471449,-0.0010925555,8.80765,-0.009467533,7.7708936,-0.023697503,9.940171,-0.016330319,8.743012,0.01947981,9.541342,0.0008171561,7.4372635,-0.04784041,8.988475,-0.06225756,8.651341,-0.09297249,8.341013,-0.035891034,8.2633505,-0.0996401,8.888042,-0.052755363,9.112036,-0.05082784,7.665064,-0.09163253,8.4093275,-0.10683781,8.725308,-0.049210183,6.613754,-0.12236087,8.282192,-0.13860856,7.414985,-0.07332709,8.144197,-0.102193706,6.959305,-0.10383992,7.245062,-0.16313475,6.8187423,-0.20388801,5.8577037,-0.2028758,7.0591216,-0.18465555,7.6931624,-0.1273347,6.243137,-0.29897738,6.022848,-0.24515457
2026-03-04 19:21:58.405763,444.12,43823.26,7.675796031951904,6.15813,0.3548232,6.1238,0.35677472,6.4754453,0.33186975,8.385876,0.18732062,6.9205685,0.18048583,6.425853,0.2455779,6.212084,0.27327707,6.468821,0.23412764,6.8811617,0.23242949,6.535689,0.15396917,8.341264,0.089739054,7.8775015,0.1271802,7.644411,0.12791668,7.4104786,0.11709121,7.7537503,0.11288198,9.56406,0.094748124,7.144588,0.06689761,7.021228,0.06416991,6.961555,0.11080123,8.366511,0.07036626,8.033843,0.082238,8.676081,0.02937299,7.250122,0.037796587,7.2224574,0.06129081,9.51075,0.004011018,8.824116,0.0026005795,7.858069,-0.03396084,9.973493,-0.010438096,8.691655,0.02003352,9.552671,-0.004990585,7.3435736,-0.03535687,8.90068,-0.06638079,8.7119875,-0.09528492,8.288849,-0.039144203,8.408717,-0.0905405,8.876359,-0.050286934,9.057625,-0.04309655,7.6166472,-0.06992759,8.483462,-0.08751946,8.784533,-0.050048396,6.622297,-0.120484814,8.240138,-0.13296564,7.4423513,-0.0739775,8.121755,-0.09721194,6.853035,-0.11338257,7.306172,-0.17065127,6.7532816,-0.196969,5.960681,-0.2017706,7.05362,-0.17922655,7.6290226,-0.11343756,6.338124,-0.2841912,6.0824375,-0.24133757
2026-03-04 19:21:58.420761,444.12,43823.26,7.677332401275635,6.0824723,0.34741727,6.0623417,0.34285566,6.5297856,0.32738,8.38768,0.17862488,6.921534,0.16522409,6.4871807,0.24868214,6.23462,0.27429262,6.486368,0.24700652,6.82002,0.23725593,6.6130357,0.15027873,8.501279,0.07585525,7.8990073,0.12945724,7.591253,0.12481842,7.2587185,0.09988075,7.5756097,0.10675747,9.617999,0.087837316,7.2012,0.045973666,7.041182,0.049066737,7.0351973,0.108049035,8.429861,0.07449253,8.048404,0.086902015,8.586802,0.03257379,7.293331,0.034430802,7.3326454,0.045207135,9.498147,-8.2082195e-05,8.753573,-0.006367823,7.712987,-0.03885263,9.998393,-0.02060399,8.747773,0.008216316,9.547403,-0.01953978,7.399282,-0.048701204,9.00543,-0.06535,8.653096,-0.09378826,8.3687725,-0.030281266,8.266368,-0.102875166,8.963365,-0.055279765,9.131958,-0.056857225,7.6826215,-0.08346125,8.405246,-0.1082429,8.68022,-0.056714147,6.649627,-0.13910268,8.314079,-0.15392287,7.4664807,-0.09254009,8.1135845,-0.1079097,6.922707,-0.1089295,7.20381,-0.16983466,6.82748,-0.20856656,5.834857,-0.20329028,7.1351223,-0.18820636,7.673955,-0.13502364,6.2835937,-0.3058267,5.943783,-0.25511914
2026-03-04 19:21:58.425708,444.12,43823.26,7.69956636428833,6.1273727,0.3418952,6.132258,0.33924562,6.4472766,0.3146598,8.50359,0.1665517,6.853607,0.15844783,6.5630865,0.24511066,6.231103,0.25952804,6.5364575,0.2505119,6.8648787,0.22070727,6.5877566,0.147688,8.466913,0.08293991,7.907121,0.14107205,7.607925,0.13196857,7.3885083,0.11168569,7.7400255,0.10960783,9.5299835,0.07717792,7.280519,0.043334555,7.009861,0.0472842,7.0615873,0.102817334,8.368782,0.063920945,8.087935,0.08641384,8.649669,0.024213267,7.232978,0.045284458,7.3106446,0.0639257,9.514964,0.006767907,8.839076,0.006568707,7.9141617,-0.035602998,9.936991,-0.02548598,8.888568,0.008047835,9.491579,-0.020321656,7.4530773,-0.041793093,8.967444,-0.07299934,8.697693,-0.09780485,8.403604,-0.029138993,8.428961,-0.098933324,8.877232,-0.03712833,9.100482,-0.03957014,7.6226473,-0.06374544,8.441485,-0.0913036,8.87903,-0.044015974,6.563157,-0.13829714,8.432419,-0.14996016,7.378459,-0.08301721,8.149752,-0.09775975,6.8956223,-0.10654429,7.2094064,-0.16523317,6.8352146,-0.18806162,5.884208,-0.19197659,6.9947195,-0.1684051,7.7058105,-0.107513964,6.316023,-0.27812043,6.0658407,-0.23677482
2026-03-04 19:21:58.435705,444.12,43823.26,7.709173202514648,6.0486994,0.3532023,6.1693773,0.34472737,6.4131575,0.32076305,8.582434,0.18551739,6.7818513,0.18324676,6.591071,0.24464078,6.2592335,0.2636893,6.510442,0.2510313,6.814628,0.21895286,6.513083,0.14403322,8.483361,0.09958341,7.929949,0.13779366,7.6749463,0.1275217,7.347223,0.11922957,7.8125644,0.11622888,9.463529,0.093231365,7.340712,0.06326074,6.9678316,0.06956033,7.192567,0.10666064,8.421966,0.065706715,8.071375,0.085815825,8.623836,0.022545211,7.1542892,0.034633186,7.3313904,0.075698934,9.529141,0.013941989,8.902191,0.010761085,7.941922,-0.02564999,9.843979,-0.0105794985,8.907619,0.023687039,9.483165,0.0041691097,7.5860996,-0.04053005,9.034441,-0.06559277,8.763915,-0.0916354,8.352353,-0.027423255,8.3780775,-0.09700786,8.816659,-0.051077228,9.13537,-0.032678355,7.7075944,-0.0683213,8.436158,-0.09051007,8.893325,-0.03753734,6.5046997,-0.1191419,8.396781,-0.12380914,7.3960915,-0.06445699,8.28203,-0.09924358,6.9682684,-0.10416714,7.3028593,-0.17171267,6.844204,-0.19816604,5.9441385,-0.19721782,6.961719,-0.1713451,7.7442417,-0.1009487,6.2586327,-0.2870494,6.061815,-0.23113868
2026-03-04 19:21:58.440698,444.12,43823.26,7.711052894592285,6.121221,0.36375418,6.1258144,0.35746026,6.5058613,0.3341505,8.511421,0.19318208,6.8765316,0.18454453,6.5018873,0.24558915,6.225863,0.26701126,6.5355844,0.24985671,6.851207,0.22335103,6.5980744,0.15707442,8.463596,0.10730028,7.8775764,0.15034091,7.6806517,0.14236417,7.415527,0.13469099,7.7396984,0.124610744,9.562066,0.097493686,7.2465773,0.07321035,7.0048747,0.06848696,7.0756145,0.10493599,8.344423,0.07378298,8.113922,0.08632845,8.697756,0.027410634,7.204942,0.048781317,7.324276,0.08576695,9.499389,0.023998318,8.880897,0.01745155,7.9079914,-0.019296948,9.96489,-0.0062512704,8.865937,0.02927846,9.498905,0.00038010807,7.424871,-0.03764611,9.049477,-0.061409444,8.7346525,-0.096632496,8.406424,-0.030005472,8.402844,-0.10425768,8.921375,-0.04002484,9.104269,-0.023683203,7.6607666,-0.06415896,8.5047035,-0.07695658,8.836812,-0.026442286,6.6390743,-0.13302131,8.392945,-0.12630868,7.389791,-0.059941556,8.128647,-0.094547465,6.943568,-0.1053132,7.237532,-0.17149217,6.877947,-0.19803219,5.8895435,-0.19311911,7.0169296,-0.16985899,7.772172,-0.09556069,6.3213167,-0.2758046,6.096105,-0.23575161
2026-03-04 19:21:58.445728,444.12,43823.26,7.71898889541626,6.0986238,0.3585321,6.0409994,0.365619,6.563872,0.34713742,8.484687,0.19217698,6.9331555,0.18693827,6.485761,0.25387254,6.313995,0.26739293,6.513804,0.25197688,6.8404975,0.23649924,6.713355,0.14735235,8.587714,0.09717976,7.9337234,0.13495854,7.6648216,0.12305985,7.332802,0.11726437,7.613444,0.12047172,9.624993,0.10427205,7.2106514,0.06633412,7.1253414,0.06797722,7.058006,0.10940841,8.436123,0.07423986,8.086405,0.084678784,8.591852,0.031559363,7.3080873,0.033679783,7.390444,0.06580566,9.460568,0.004841112,8.833986,-0.0059235063,7.7892,-0.02277671,9.98195,-0.011530796,8.831702,0.025516605,9.611779,-0.0031199818,7.5024652,-0.043420058,9.054115,-0.07066576,8.685092,-0.09813849,8.408776,-0.032652296,8.321244,-0.100732416,8.970307,-0.04526972,9.175729,-0.046261378,7.68019,-0.08857465,8.401695,-0.10187267,8.814281,-0.039435048,6.6576257,-0.12664896,8.361108,-0.13580231,7.4876456,-0.07381289,8.170534,-0.10409214,6.9903135,-0.09996864,7.256831,-0.17749485,6.880628,-0.20544595,5.8709273,-0.19020008,7.1258287,-0.19169381,7.7866793,-0.11755243,6.330373,-0.29852358,5.9926763,-0.25288856
2026-03-04 19:21:58.450888,444.12,43823.26,7.723254203796387,6.159548,0.3769748,6.056133,0.38031006,6.5562778,0.34868485,8.4528265,0.19907281,6.929467,0.20396431,6.529051,0.2610224,6.249676,0.2820019,6.489847,0.26169235,6.8294473,0.23587725,6.6669583,0.15373945,8.478015,0.114711665,7.9243245,0.14953838,7.651409,0.13568304,7.391796,0.14347464,7.6663218,0.1331275,9.621963,0.10662838,7.2195587,0.075346075,7.130444,0.084793545,7.042239,0.113870844,8.442734,0.077754445,8.095672,0.093485,8.628801,0.029563254,7.2655287,0.040829998,7.342488,0.084249735,9.55808,0.022763269,8.8595495,0.013621057,7.823907,-0.0144597385,10.011016,-0.006150018,8.808234,0.034182753,9.584159,0.012085034,7.441789,-0.04186284,9.049957,-0.05954411,8.71735,-0.105924346,8.39626,-0.03100146,8.401308,-0.10255784,8.976212,-0.04952317,9.132245,-0.022677653,7.6443825,-0.07081996,8.45814,-0.090386994,8.820578,-0.027168062,6.6305785,-0.12484302,8.339303,-0.13480853,7.5632334,-0.05867976,8.191491,-0.10059891,6.9706535,-0.11292173,7.3044014,-0.1823407,6.876316,-0.20786665,5.926444,-0.20894049,7.141125,-0.18377328,7.7980967,-0.10875663,6.3293695,-0.2946987,6.034533,-0.23494524
2026-03-04 19:21:58.460748,444.12,43823.26,7.732007026672363,6.1438704,0.35132015,6.0287957,0.35042658,6.58064,0.3255492,8.431428,0.17104343,6.950797,0.16564998,6.4958835,0.24307567,6.2637486,0.28253394,6.5386815,0.26388773,6.847254,0.24291277,6.746345,0.15476727,8.539684,0.08578545,7.9086375,0.13842751,7.677098,0.12882607,7.3588386,0.10875376,7.6286893,0.10940256,9.6909075,0.08647575,7.1707006,0.05023673,7.1644225,0.041772105,7.0378685,0.101103775,8.406028,0.0796818,8.14578,0.093790576,8.620166,0.028265638,7.3381977,0.040865544,7.3980856,0.057530485,9.497581,0.0042038504,8.833878,0.001835477,7.827655,-0.0400565,10.078832,-0.025938217,8.824197,0.007046407,9.6150055,-0.02403095,7.371499,-0.05333452,9.125375,-0.07417632,8.745233,-0.09988818,8.422978,-0.030000908,8.355649,-0.1062457,9.036277,-0.057642058,9.195562,-0.047389995,7.662675,-0.077099405,8.475806,-0.106257744,8.765082,-0.051618204,6.739622,-0.15101053,8.317729,-0.1603606,7.604296,-0.09592475,8.115234,-0.10868136,7.021671,-0.1114659,7.2368765,-0.16931105,6.83191,-0.20047818,5.88871,-0.1954574,7.1274724,-0.18283823,7.8767853,-0.13043584,6.2953777,-0.3097971,6.062875,-0.25460938
2026-03-04 19:21:58.465774,444.12,43823.26,7.71523380279541,6.091869,0.35845432,6.1323953,0.3629023,6.4669704,0.3363921,8.542486,0.1862693,6.843784,0.17634065,6.5733113,0.25481713,6.2438436,0.28215092,6.564941,0.2563294,6.746156,0.23972733,6.6437597,0.155811,8.556953,0.09158763,7.944859,0.13688146,7.6254315,0.12889925,7.294962,0.12025686,7.7239203,0.117940895,9.619213,0.10295959,7.3170905,0.05908388,7.01281,0.05590569,7.0983477,0.10551363,8.398469,0.07446495,8.14217,0.088908605,8.5602,0.034926504,7.1955028,0.039281145,7.3712993,0.064604715,9.488062,0.0026537492,8.812605,-0.00039050129,7.8663416,-0.03179982,10.01684,-0.015222323,8.926694,0.019024624,9.461033,-0.009408329,7.467683,-0.053358085,9.084713,-0.0645944,8.600579,-0.10288773,8.454008,-0.030836068,8.3144045,-0.104557894,8.989017,-0.048947934,9.230329,-0.04313902,7.6814165,-0.087041646,8.357838,-0.09930608,8.778663,-0.042270027,6.620467,-0.13247263,8.43769,-0.14772448,7.3999796,-0.08355231,8.206495,-0.10459726,7.083365,-0.11028943,7.165669,-0.17590556,6.945011,-0.20273979,5.814972,-0.19921102,7.0837455,-0.19182202,7.820907,-0.124265105,6.331976,-0.30618688,6.040941,-0.26827067
2026-03-04 19:21:58.470902,444.12,43823.26,7.72038459777832,5.978741,0.35048124,6.261073,0.3578334,6.3295646,0.3268211,8.690995,0.17307572,6.704309,0.17463602,6.5874295,0.23821306,6.2664776,0.2657927,6.503447,0.25881413,6.889106,0.22040138,6.429412,0.14615783,8.43659,0.082367286,7.9886975,0.12495019,7.651951,0.11247678,7.397747,0.11264396,8.034279,0.121499576,9.388853,0.09212867,7.4189696,0.053143647,6.931314,0.06861026,7.2045465,0.095438145,8.372095,0.06733512,8.064002,0.0910879,8.661156,0.02715647,7.0500216,0.03745908,7.2879944,0.06821491,9.587043,0.0087765725,9.004675,-0.00024168388,8.15272,-0.01758686,9.746233,-0.015372022,9.01223,0.0201582,9.423612,0.00085301924,7.6945977,-0.047646154,8.952172,-0.063553736,8.726437,-0.09255169,8.303278,-0.028952684,8.516948,-0.09463288,8.717588,-0.053935476,9.121973,-0.04246679,7.6769247,-0.08872375,8.47918,-0.101523004,9.025079,-0.034990832,6.3943872,-0.12399349,8.455767,-0.13011251,7.3807626,-0.06648815,8.392627,-0.10399376,6.8971033,-0.09181393,7.2886305,-0.16588356,6.811525,-0.19371076,6.022339,-0.18473077,6.877277,-0.17056565,7.7519026,-0.10658964,6.33442,-0.28760514,6.1838098,-0.23885007
2026-03-04 19:21:58.475867,444.12,43823.26,7.73179292678833,6.1274376,0.347195,6.1257873,0.36041895,6.5423913,0.34423918,8.496965,0.17898536,6.9368763,0.1829118,6.4265513,0.2511694,6.218247,0.28592378,6.5021873,0.25752643,6.9274626,0.24074644,6.7053657,0.15003937,8.461649,0.074789,7.915932,0.11331903,7.659325,0.10164226,7.413197,0.10427754,7.7722726,0.11627533,9.637823,0.098511115,7.219726,0.057857264,7.110306,0.05942266,7.007579,0.10511107,8.351934,0.08248833,8.080091,0.08956383,8.690584,0.033159204,7.304217,0.03274152,7.3214383,0.051187914,9.563216,-0.009665895,8.88955,-0.017794808,7.971359,-0.02769751,10.053989,-0.018629737,8.822112,0.012447603,9.635775,-0.0028553533,7.380469,-0.042431436,8.982081,-0.06473497,8.6931,-0.10296561,8.397694,-0.036056835,8.5197935,-0.09651923,9.030153,-0.061525784,9.137294,-0.06050216,7.6437116,-0.10334886,8.539092,-0.11698453,8.853676,-0.05203108,6.687789,-0.11956343,8.322663,-0.13638254,7.587724,-0.08253308,8.127717,-0.101743385,6.9160485,-0.09780846,7.2386093,-0.17601304,6.8532443,-0.20452093,5.9964423,-0.19111481,7.1376524,-0.19087079,7.7346654,-0.1252914,6.2759495,-0.3228297,6.106298,-0.26913005
2026-03-04 19:21:58.480831,444.12,43823.26,7.741493225097656,6.1152315,0.35943198,6.110624,0.3657562,6.4580073,0.34232756,8.550932,0.195885,6.9450717,0.18344657,6.5598083,0.25032163,6.2701807,0.27535754,6.565561,0.27080557,6.7651386,0.23528358,6.7175183,0.15707864,8.578165,0.10394407,7.9389668,0.14415297,7.65962,0.13751034,7.296356,0.12475134,7.653305,0.12074441,9.652757,0.09591124,7.3453226,0.064877816,7.1392655,0.06843439,7.1397705,0.1074659,8.415054,0.07672475,8.102551,0.09329947,8.607454,0.026718693,7.3215523,0.04656848,7.3646526,0.07159303,9.526901,0.0119799,8.854026,0.011661709,7.8095007,-0.029381119,10.054892,-0.018521557,8.944286,0.024838611,9.600596,-0.008704083,7.4781795,-0.050038148,9.138086,-0.06792935,8.683108,-0.09537262,8.484022,-0.026788693,8.350395,-0.11078317,9.067673,-0.04503057,9.231367,-0.035624065,7.6867623,-0.07128169,8.382233,-0.0956913,8.742819,-0.04272577,6.710534,-0.14443476,8.420215,-0.14461067,7.534413,-0.0747889,8.219473,-0.107377924,7.0267334,-0.11006327,7.1721263,-0.17178674,6.937451,-0.20954588,5.8902683,-0.20136605,7.173724,-0.18910187,7.8408575,-0.11349499,6.3023453,-0.2959678,6.021788,-0.24893169
2026-03-04 19:21:58.485840,444.68,43824.36,7.740360736846924,6.0451565,0.35827208,6.0976677,0.35872626,6.5074453,0.33893436,8.554056,0.19101585,7.0168395,0.17933992,6.5754924,0.2503625,6.3115034,0.2706319,6.5302,0.2704821,6.76117,0.24552298,6.7795205,0.15569349,8.622438,0.086675644,7.936503,0.1340102,7.6638613,0.12946415,7.2320013,0.10769131,7.6669865,0.1200398,9.648554,0.09113064,7.282333,0.055517644,7.1463294,0.060047798,7.1345367,0.10305317,8.44089,0.07636936,8.062208,0.09598799,8.622497,0.03526103,7.3434825,0.043621205,7.4207673,0.054423243,9.53946,0.0002846939,8.805945,0.0033946089,7.797238,-0.029111559,10.076564,-0.022299694,8.881875,0.011621383,9.6223955,-0.016164754,7.460178,-0.059124198,9.159406,-0.06297298,8.617377,-0.098451555,8.528822,-0.025767915,8.320868,-0.10754202,9.060732,-0.05095206,9.286837,-0.048090797,7.688302,-0.08372116,8.359524,-0.10575183,8.724659,-0.053345043,6.7131,-0.16176008,8.362934,-0.1586575,7.457793,-0.08806556,8.20838,-0.11585324,7.067501,-0.10679946,7.1431527,-0.17437935,6.9978228,-0.20522754,5.866858,-0.1992794,7.1541996,-0.19780332,7.9067273,-0.12711652,6.33671,-0.3080668,5.9509225,-0.25140128
2026-03-04 19:21:58.490908,445.12,43825.07,7.750704288482666,6.1451344,0.36235017,6.110475,0.36209357,6.50184,0.34079227,8.582512,0.19000383,6.9101954,0.18911487,6.4994254,0.24970816,6.2734118,0.27014127,6.513408,0.2553542,6.862776,0.22671852,6.669366,0.15265603,8.471471,0.10352445,7.956005,0.13464573,7.70255,0.12578483,7.4472365,0.12985592,7.801885,0.12820876,9.611033,0.100655384,7.2902565,0.07305339,7.1215997,0.076562494,7.0692983,0.107618496,8.372224,0.07948204,8.11637,0.08873776,8.713267,0.027856732,7.2670164,0.033904426,7.3326955,0.0818557,9.582269,0.017490178,8.9281845,0.008253537,7.9516406,-0.017229384,10.034247,-0.004951634,8.952658,0.03285221,9.5888,0.010459199,7.448888,-0.04488879,9.032138,-0.06213501,8.755495,-0.102169625,8.4186325,-0.030669795,8.480646,-0.10047446,9.025059,-0.049054693,9.11532,-0.02706332,7.7142396,-0.07012931,8.490404,-0.08832349,8.893167,-0.026740715,6.6283755,-0.11581224,8.410413,-0.12646097,7.583331,-0.058784332,8.155175,-0.0971144,6.9896975,-0.10243706,7.2608376,-0.17155454,6.911649,-0.20070304,5.9978385,-0.19541438,7.1212816,-0.17337193,7.8051763,-0.09927018,6.340732,-0.29037204,6.078879,-0.22679184
2026-03-04 19:21:58.501794,445.12,43825.07,7.745813846588135,6.106517,0.35462758,6.138559,0.36601192,6.5189295,0.3269814,8.555378,0.18185562,6.9282966,0.18388027,6.462452,0.25179064,6.279172,0.26260948,6.494215,0.2612774,6.9526443,0.22728954,6.6817236,0.15433936,8.490003,0.10067839,7.8819776,0.14050698,7.7251916,0.13453011,7.3924794,0.1264768,7.773778,0.12204399,9.61324,0.09473585,7.2545805,0.06492701,7.140498,0.067811154,7.0879884,0.10910431,8.364961,0.06802452,8.097441,0.08928496,8.700395,0.024369167,7.2711325,0.043579902,7.366709,0.0788616,9.576244,0.014740056,8.940888,0.01229258,8.033047,-0.023088703,10.017983,-0.017817777,8.797729,0.016271485,9.688821,-0.0020264369,7.4686737,-0.04322088,8.972785,-0.06979192,8.824828,-0.09514822,8.364708,-0.02858086,8.511853,-0.099571384,8.931534,-0.048459955,9.09739,-0.032490607,7.6758003,-0.06848385,8.5764475,-0.0939911,8.884741,-0.041881226,6.6599646,-0.12690832,8.249244,-0.13753445,7.6349826,-0.07484178,8.220816,-0.10151797,6.897032,-0.09913742,7.331307,-0.1646523,6.7797146,-0.19899295,6.082316,-0.18982789,7.1005473,-0.17785929,7.8210244,-0.10142167,6.2978916,-0.28940478,6.065779,-0.23868649
2026-03-04 19:21:58.506860,445.12,43825.07,7.7533087730407715,6.052247,0.35947943,6.143474,0.3646219,6.401356,0.33499214,8.688128,0.18324588,6.9200344,0.17759506,6.510506,0.25670603,6.272002,0.26613197,6.511438,0.25705293,6.874119,0.23083979,6.7005596,0.16329928,8.488125,0.10091952,8.004947,0.15009098,7.664697,0.1480804,7.392999,0.13475195,7.8181,0.12531158,9.558842,0.099908695,7.359093,0.059637923,7.137172,0.06125324,7.1571717,0.11392529,8.395097,0.06647059,8.088718,0.089764066,8.656049,0.027776893,7.3050756,0.049668185,7.33188,0.08944959,9.59705,0.025749285,8.930327,0.021401307,7.9857993,-0.026532294,9.974538,-0.010154934,8.9351,0.020287104,9.637169,-0.005596125,7.5086737,-0.032986112,9.020716,-0.070623785,8.762208,-0.09769175,8.416271,-0.033539448,8.478187,-0.103532635,8.949008,-0.03711883,9.160127,-0.024438178,7.7212114,-0.054077294,8.45977,-0.077638716,8.865026,-0.03470864,6.5813417,-0.1296887,8.409303,-0.14182584,7.575071,-0.07714221,8.271029,-0.098326415,6.9826794,-0.099384144,7.255289,-0.1678331,6.894166,-0.1979749,6.0236287,-0.20111234,7.118834,-0.17037566,7.8006115,-0.08952758,6.371428,-0.27675083,6.055691,-0.2293772
2026-03-04 19:21:58.516217,445.46,43825.86,7.753152847290039,6.1114283,0.37251753,6.089095,0.3724967,6.4522233,0.35312635,8.619265,0.20164244,6.9312315,0.19430846,6.5395455,0.2693639,6.278991,0.26834172,6.494062,0.25361308,6.800943,0.23260574,6.6971183,0.15987028,8.540188,0.11714247,7.9815335,0.15924741,7.702367,0.15372753,7.378374,0.14471816,7.737054,0.12537256,9.608524,0.111149006,7.28972,0.08161525,7.1480665,0.07643735,7.133885,0.12667243,8.387461,0.07106282,8.130324,0.08523203,8.678299,0.033537254,7.2507887,0.048532795,7.355274,0.09246642,9.554745,0.029267592,8.929617,0.030260723,7.9612937,-0.031383015,10.037749,-0.001663842,8.918289,0.031691033,9.62685,-0.00014260263,7.4856763,-0.023943879,9.095306,-0.061280556,8.768275,-0.1030078,8.446037,-0.031170743,8.454423,-0.094532736,9.017297,-0.039221097,9.14587,-0.02351204,7.6616898,-0.050304785,8.501788,-0.07396359,8.8807125,-0.03777352,6.6457567,-0.11600146,8.472513,-0.12045492,7.5677156,-0.06193084,8.215189,-0.090099715,7.027794,-0.11086472,7.2527056,-0.17682956,6.9179406,-0.20883398,5.905935,-0.1980907,7.137579,-0.1784299,7.811785,-0.08990584,6.3593907,-0.28165317,6.028235,-0.22877742
2026-03-04 19:21:58.521012,445.46,43825.86,7.758004188537598,6.153331,0.34498373,6.078561,0.35505748,6.533742,0.31630108,8.566834,0.16446185,6.9735436,0.16425629,6.47942,0.25025418,6.2526507,0.26465213,6.497341,0.26372477,6.8621097,0.22929934,6.725989,0.14961228,8.520466,0.08568675,7.936996,0.13444386,7.726401,0.1283718,7.4247804,0.11418789,7.727378,0.11753162,9.62522,0.08463369,7.2472806,0.04373054,7.1651044,0.04600537,7.0851774,0.10461554,8.419567,0.0690366,8.097344,0.093113445,8.710339,0.02274194,7.286407,0.037692826,7.3635535,0.06287085,9.557281,0.0059974208,8.9520645,0.002493632,7.948557,-0.035915453,10.098913,-0.026003387,8.871797,0.0015630056,9.678791,-0.026643401,7.4621353,-0.048078064,9.088924,-0.07300737,8.742951,-0.09787912,8.416048,-0.03171778,8.495158,-0.10730214,8.978096,-0.051305532,9.171385,-0.050392862,7.6945457,-0.078776,8.53471,-0.10878755,8.867868,-0.047873784,6.6746745,-0.14809409,8.367505,-0.16097428,7.595035,-0.09435652,8.172204,-0.10676662,6.996328,-0.105911784,7.2766166,-0.17093252,6.897489,-0.19419254,6.0240793,-0.19911456,7.1476626,-0.17659904,7.8633966,-0.12429787,6.322484,-0.29850978,6.059973,-0.25388163
2026-03-04 19:21:58.526028,445.46,43825.86,7.7589216232299805,6.076339,0.3396743,6.1453085,0.35169792,6.4999046,0.3226739,8.649245,0.16689554,6.907936,0.1615043,6.5095625,0.249515,6.2631693,0.27132195,6.5308967,0.2744659,6.8794413,0.23128478,6.6837153,0.15873002,8.488319,0.07753517,7.959207,0.13000236,7.716942,0.12079119,7.426983,0.103537805,7.8815956,0.11258662,9.568402,0.08511264,7.326178,0.038588174,7.1518626,0.04356641,7.114619,0.10000562,8.364784,0.07219396,8.079587,0.09925917,8.693333,0.030060083,7.2635727,0.03827676,7.330167,0.058592234,9.60747,-0.00021093566,8.959753,-0.00036000597,8.080734,-0.033620533,10.0121565,-0.02920554,8.943001,0.0006692409,9.630228,-0.028007276,7.487117,-0.055890158,9.023529,-0.0736546,8.748177,-0.10098679,8.468328,-0.03022835,8.525735,-0.109719716,8.969568,-0.059049573,9.158866,-0.057557482,7.6891904,-0.09377752,8.528905,-0.11399974,8.935162,-0.05550818,6.6111913,-0.15311354,8.412291,-0.1637614,7.563817,-0.09641981,8.253022,-0.12023905,6.9003015,-0.104442514,7.2316813,-0.16330956,6.8318005,-0.19575661,6.0287905,-0.19448304,7.097962,-0.19365919,7.815398,-0.13211724,6.370396,-0.31422156,6.068287,-0.27183437
2026-03-04 19:21:58.530892,445.83,43826.75,7.764150142669678,6.097289,0.36689737,6.089525,0.37231728,6.441129,0.34724754,8.664427,0.18644975,6.89473,0.19033061,6.531073,0.25368285,6.260655,0.27317572,6.510833,0.25793457,6.888681,0.2392903,6.67414,0.1524595,8.577125,0.10094113,7.972033,0.14771985,7.6893544,0.13144927,7.395138,0.1362182,7.8169494,0.1249064,9.5556555,0.10931401,7.388209,0.069777906,7.100059,0.07447634,7.1820827,0.1135056,8.413998,0.07416896,8.13247,0.08690074,8.706614,0.025457602,7.214862,0.041561566,7.358134,0.08556077,9.584263,0.018841563,8.976642,0.011654023,8.010103,-0.028899683,9.970724,-0.0029513016,8.998767,0.024963804,9.588154,-0.0032430978,7.5510473,-0.034932967,9.11528,-0.06648735,8.764765,-0.09865478,8.4707,-0.03625297,8.488942,-0.09976026,8.960877,-0.04259852,9.163566,-0.03441339,7.67781,-0.07166299,8.496262,-0.08837714,8.938061,-0.03749186,6.596929,-0.12114625,8.445177,-0.12948965,7.5312753,-0.073323585,8.259267,-0.096651256,7.0428715,-0.09711243,7.2686677,-0.1705621,6.851399,-0.2056841,6.0029626,-0.194254,7.118316,-0.17502263,7.866735,-0.09744133,6.354146,-0.28820294,6.086916,-0.24648139
2026-03-04 19:21:58.535979,446.0,43826.88,7.75348424911499,6.075723,0.36365783,6.1678143,0.37194222,6.4846587,0.3459888,8.561558,0.20343181,6.782637,0.20503299,6.5677385,0.25392315,6.3121095,0.2656157,6.4960384,0.24768184,6.891165,0.22821988,6.5568347,0.14762035,8.535277,0.111427166,7.8559237,0.1358109,7.7794065,0.13782267,7.4636493,0.13696572,7.914108,0.12503465,9.502635,0.111919716,7.2581687,0.087969795,7.0621057,0.09193797,7.205084,0.10259605,8.449989,0.069329165,8.136111,0.08437874,8.710283,0.035687387,7.1257367,0.03507891,7.434592,0.09633104,9.487933,0.022076802,9.075345,0.018431267,8.033958,-0.018132666,9.912279,0.0053192643,8.949404,0.04427317,9.554275,0.022247866,7.586847,-0.02943419,9.102959,-0.061611023,8.869004,-0.09540727,8.36647,-0.03730722,8.517048,-0.09047889,8.813001,-0.045720898,9.192151,-0.019953351,7.679804,-0.06998636,8.559809,-0.084404334,8.979666,-0.023542637,6.561705,-0.09962644,8.316305,-0.10550682,7.500163,-0.049217775,8.295016,-0.09606714,7.0147624,-0.0966425,7.33639,-0.17218979,6.8444843,-0.20455264,6.005334,-0.18630445,6.9449053,-0.17750104,7.9066906,-0.08222201,6.2830944,-0.2796981,6.163016,-0.2310244
2026-03-04 19:21:58.545953,447.52,43821.62,7.759702682495117,6.064595,0.38183805,6.180246,0.37111464,6.4021425,0.34589696,8.652102,0.19793734,6.903441,0.19093357,6.5919914,0.26319364,6.2808795,0.26233515,6.470223,0.24710955,6.8562136,0.23535405,6.619329,0.1501591,8.500337,0.11345761,7.9107757,0.16438529,7.7258205,0.16071339,7.42439,0.15002336,7.9368443,0.12157859,9.523363,0.11020585,7.367679,0.07918273,7.0909824,0.07495437,7.17633,0.124919675,8.408023,0.06383651,8.104666,0.08163953,8.688383,0.037509162,7.200159,0.045343023,7.3178453,0.100504465,9.562248,0.03710166,9.006333,0.03135348,8.106091,-0.024993096,9.996791,0.003539561,8.987731,0.028308293,9.5470085,0.0008678909,7.545662,-0.02615154,9.051306,-0.06877991,8.79605,-0.09905362,8.401312,-0.031539492,8.510687,-0.097322784,8.891645,-0.034362555,9.098182,-0.018594518,7.7113094,-0.04346703,8.543292,-0.0764251,9.019247,-0.032656044,6.5284805,-0.115801275,8.4575615,-0.12530804,7.4848604,-0.06588721,8.2463045,-0.08805795,7.0208116,-0.103402846,7.3595595,-0.17248882,6.8481326,-0.2031315,6.0295935,-0.19040309,7.0285206,-0.16150953,7.8636365,-0.07962606,6.386317,-0.26252934,6.07908,-0.22313438
2026-03-04 19:21:58.555937,447.62,43820.64,7.756638526916504,6.116771,0.34983638,6.033517,0.35879874,6.562238,0.33512124,8.501377,0.17735992,7.0237265,0.17120193,6.4450154,0.25246242,6.2763863,0.2835935,6.53993,0.27176502,6.8828397,0.24421023,6.787563,0.1458658,8.6009865,0.07909503,7.962034,0.12845922,7.732484,0.113742836,7.374382,0.10499143,7.7103786,0.11069346,9.678173,0.09306282,7.1843686,0.04958064,7.246448,0.04600438,6.9994817,0.102417134,8.408668,0.076811485,8.038273,0.094254136,8.690492,0.035194784,7.361882,0.03167888,7.393138,0.050439086,9.541799,-0.004136369,8.865203,0.00041938116,7.8381147,-0.04080464,10.153907,-0.025578711,8.816601,0.002214823,9.691675,-0.029053777,7.349259,-0.058060225,9.128717,-0.07718632,8.707722,-0.09613685,8.478049,-0.027015971,8.442205,-0.104589775,9.109419,-0.062358756,9.194376,-0.06053651,7.7253213,-0.08397288,8.510524,-0.11799921,8.779914,-0.060257923,6.7549877,-0.15186578,8.338815,-0.1604976,7.6804895,-0.10398842,8.104276,-0.12268575,7.039346,-0.111869045,7.221697,-0.16581912,6.9168987,-0.20666072,5.950117,-0.19422846,7.2223234,-0.19885145,7.8792105,-0.14430901,6.33697,-0.32242668,6.0167165,-0.27334642
2026-03-04 19:21:58.566027,447.62,43820.64,7.761499404907227,6.099491,0.34568202,6.182644,0.35575628,6.518967,0.32976252,8.542822,0.16903226,6.9306006,0.16373886,6.591764,0.24632306,6.29331,0.27675286,6.5288067,0.26277637,6.8508387,0.24602118,6.7260404,0.149915,8.6120405,0.079146914,7.9332104,0.12135143,7.690777,0.10509468,7.321955,0.106712826,7.775652,0.11089968,9.651373,0.09192762,7.33107,0.053356692,7.1331573,0.049701713,7.148706,0.10163229,8.4066725,0.077803925,8.133875,0.09104163,8.646927,0.028305769,7.2512827,0.0334477,7.4567637,0.05378056,9.526144,-0.0036053145,8.866256,-0.008257243,7.919831,-0.038630284,10.039905,-0.021660207,8.96968,0.013535096,9.606897,-0.019671397,7.493872,-0.055871073,9.135808,-0.06947276,8.728137,-0.100642644,8.452919,-0.032552693,8.388517,-0.104156,9.042687,-0.06317437,9.259776,-0.05314209,7.6673,-0.09510778,8.469731,-0.117797084,8.861334,-0.054305702,6.7136555,-0.13866879,8.452113,-0.14821677,7.6002984,-0.09445783,8.2002735,-0.10978928,7.0256724,-0.104394004,7.1710043,-0.16745214,6.894981,-0.20206985,5.9253554,-0.18906118,7.1050324,-0.1883062,7.8984294,-0.13317628,6.348467,-0.3212356,6.075107,-0.26039988
2026-03-04 19:21:58.576026,447.58,43819.93,7.766387462615967,6.139216,0.3690021,6.060433,0.3747239,6.5470967,0.3535022,8.472111,0.19525568,7.0179334,0.18823054,6.5220737,0.2553688,6.2317276,0.28687802,6.5233135,0.27202073,6.8708277,0.25553212,6.801387,0.1512955,8.567677,0.09009719,7.928325,0.13229355,7.7003584,0.119313546,7.3972855,0.1213232,7.7394056,0.12581761,9.715527,0.111472756,7.255177,0.061252143,7.208054,0.063325435,7.0407066,0.11392801,8.408435,0.08284748,8.11098,0.09230465,8.686862,0.035874248,7.3154345,0.033974685,7.390963,0.06494335,9.552786,0.0057671554,8.92259,-0.0075700157,7.8822746,-0.028973699,10.193919,-0.011271347,8.888593,0.02117307,9.665752,-0.011511905,7.3404145,-0.0515483,9.0913105,-0.062689915,8.698666,-0.10530173,8.525489,-0.03474881,8.436984,-0.10102533,9.129522,-0.04854022,9.176597,-0.046743367,7.6675296,-0.08856238,8.548413,-0.10733542,8.816707,-0.038458835,6.749777,-0.13171671,8.373191,-0.14412975,7.6150813,-0.084960885,8.1016865,-0.10925675,7.059405,-0.10146509,7.2622375,-0.17364393,6.9139605,-0.20818661,5.9721932,-0.18971594,7.255357,-0.19111404,7.8863635,-0.12286133,6.3809395,-0.31873,6.0930643,-0.2605214
2026-03-04 19:21:58.581041,447.58,43819.93,7.769747257232666,6.0865345,0.34193832,6.113855,0.35090306,6.461925,0.3231005,8.620927,0.16514935,6.850649,0.17254668,6.512468,0.24009627,6.3143935,0.2639262,6.509831,0.26879075,6.9558992,0.22677611,6.6654034,0.1395019,8.50254,0.077962026,7.9853535,0.12255866,7.7224646,0.111216515,7.47989,0.111210965,7.8731155,0.114565745,9.53853,0.087661356,7.330186,0.05142164,7.1585393,0.060867283,7.138174,0.088654496,8.433332,0.07009827,8.121179,0.10040433,8.712303,0.022003852,7.238232,0.032385986,7.380458,0.06260337,9.591518,0.0009235705,8.983415,-0.0050348984,8.053652,-0.026835158,9.983554,-0.021224232,8.918141,0.017033419,9.676656,-0.005040645,7.5626955,-0.057903614,9.033842,-0.07276162,8.85099,-0.093170725,8.40446,-0.03290076,8.520153,-0.10146856,8.939297,-0.057413097,9.146136,-0.042681538,7.7006125,-0.096915,8.584309,-0.1059369,8.990749,-0.05344791,6.630289,-0.13488959,8.384692,-0.13750152,7.618982,-0.0860349,8.274593,-0.10958193,6.960294,-0.09198695,7.3340387,-0.15616012,6.790539,-0.19501181,6.050528,-0.19520286,7.0775094,-0.1879846,7.8604193,-0.118077755,6.303824,-0.30688465,6.094774,-0.24826576
2026-03-04 19:21:58.591037,446.95,43818.73,7.762558937072754,6.1033955,0.35843292,6.1130285,0.37486938,6.465177,0.33935532,8.597839,0.18506366,6.934564,0.18701994,6.5407763,0.24611624,6.33896,0.27218592,6.5420623,0.2534201,6.866742,0.24117626,6.7501864,0.15355466,8.615138,0.09936219,7.913868,0.14741601,7.7234535,0.1372205,7.326158,0.13193315,7.7035885,0.12400319,9.591086,0.105983116,7.3216915,0.06408904,7.2028794,0.063804336,7.154269,0.10517267,8.433156,0.07513881,8.113268,0.082890905,8.6174555,0.03004539,7.27033,0.048245404,7.4258347,0.08330729,9.587005,0.02264724,8.96607,0.014826573,7.93076,-0.024972942,10.005349,-0.006911379,8.926984,0.026294285,9.671035,-0.0020484067,7.5064297,-0.039460998,9.097587,-0.07508348,8.805473,-0.096050434,8.482896,-0.035254404,8.462564,-0.09664962,9.005047,-0.04017991,9.216294,-0.030658409,7.6570024,-0.06468483,8.46878,-0.08696381,8.833154,-0.04036566,6.643363,-0.13320462,8.357184,-0.13414572,7.5920796,-0.07751126,8.312312,-0.097737804,6.9904127,-0.09794198,7.2457166,-0.16720892,6.888621,-0.20201828,5.9648395,-0.20327583,7.095521,-0.1789855,7.874723,-0.094565354,6.3670197,-0.2826643,6.0339494,-0.24267739
2026-03-04 19:21:58.601139,440.2,43820.59,7.767483234405518,6.1271524,0.37840974,6.0261407,0.37922657,6.5649633,0.35663193,8.55793,0.19968711,7.071912,0.18800765,6.559835,0.2662356,6.3736286,0.28844035,6.515175,0.25801623,6.7282696,0.25985664,6.8184733,0.1593219,8.660077,0.10709336,7.9211807,0.1535414,7.7256913,0.14996009,7.2764144,0.13348477,7.5946903,0.12483303,9.739404,0.114389084,7.246812,0.07101614,7.2537355,0.059726812,7.113116,0.11222733,8.512365,0.0808198,8.141633,0.085747086,8.5917425,0.041575585,7.3501797,0.044640828,7.4501047,0.07867701,9.509376,0.014972725,8.913957,0.013032893,7.7918143,-0.040124193,10.167766,-0.0030925537,8.869784,0.020817697,9.698653,-0.015337961,7.386321,-0.042494964,9.2248335,-0.07041495,8.760213,-0.10862,8.493798,-0.03568852,8.323254,-0.10584172,9.089573,-0.049651094,9.287996,-0.039440613,7.7025123,-0.0684899,8.410143,-0.09401387,8.712557,-0.051166624,6.7835827,-0.13791025,8.364167,-0.1440069,7.620553,-0.084171675,8.186863,-0.10745157,7.125395,-0.11795376,7.252918,-0.17728578,6.9382358,-0.21252261,5.8853545,-0.20684262,7.217225,-0.18990315,7.9345956,-0.11567612,6.379967,-0.3025351,5.957098,-0.26051396
2026-03-04 19:21:58.606084,438.72,43823.12,7.773498058319092,6.0789933,0.34757423,6.159257,0.35751364,6.491741,0.32707214,8.628168,0.16255385,6.89969,0.1616691,6.5723333,0.25099403,6.37999,0.25881588,6.4802985,0.25529966,6.8968916,0.2368681,6.585382,0.14598069,8.490691,0.078891106,7.8898535,0.13390112,7.755732,0.124213,7.473882,0.12542512,7.947967,0.11236836,9.529019,0.096783265,7.3021154,0.05013627,7.149456,0.044650674,7.1766095,0.11110824,8.433628,0.06697745,8.093282,0.082807645,8.702634,0.0249988,7.1565456,0.040158976,7.357607,0.066767156,9.570626,0.01406873,9.1118,0.009174186,8.165673,-0.034664843,9.925746,-0.01327389,8.978146,0.011730364,9.623344,-0.016686628,7.5330296,-0.04189373,9.104447,-0.071803235,8.849258,-0.10061656,8.3555565,-0.031577382,8.617547,-0.09572573,8.860587,-0.051421963,9.1790285,-0.04566512,7.6702776,-0.07546043,8.599697,-0.10313052,9.051372,-0.0481952,6.5385942,-0.12464302,8.410321,-0.14021993,7.5975003,-0.08526019,8.306715,-0.10212849,6.958215,-0.09638186,7.340526,-0.1597221,6.7593045,-0.19472593,6.0870714,-0.18245699,6.9914203,-0.1720591,7.8896174,-0.11005612,6.375251,-0.29076874,6.139477,-0.24271482
2026-03-04 19:21:58.611080,438.44,43823.77,7.7797088623046875,6.064603,0.36589247,6.072376,0.36584705,6.474091,0.347221,8.606674,0.18768184,6.908854,0.17927061,6.6260247,0.26809695,6.3370442,0.2800813,6.5113754,0.26162213,6.8574195,0.24837437,6.717165,0.15806592,8.649145,0.09548178,7.928222,0.13332133,7.7469687,0.12688056,7.3586197,0.1291788,7.8150663,0.11946827,9.601762,0.10587622,7.344901,0.06177176,7.1600466,0.06110174,7.1838713,0.11024345,8.47067,0.07486298,8.142439,0.08616535,8.67337,0.032961577,7.181122,0.038162276,7.4909554,0.06682379,9.531606,0.0077381455,9.011399,0.005745926,7.981355,-0.034479663,10.073456,-0.010158316,9.001963,0.019797508,9.603923,-0.010844125,7.562515,-0.04260756,9.190385,-0.07101428,8.822616,-0.107260674,8.444837,-0.033697397,8.422163,-0.1054632,8.993929,-0.053554755,9.2467165,-0.04646498,7.678828,-0.078706935,8.500527,-0.10228045,8.861152,-0.050171256,6.6706705,-0.12679441,8.431446,-0.14725408,7.579812,-0.0891881,8.295785,-0.10685191,7.1656094,-0.10577555,7.307946,-0.16996308,6.862383,-0.21204513,5.9216237,-0.18962409,7.1036167,-0.19160253,7.9816003,-0.12284344,6.266831,-0.30960703,6.107387,-0.25715488
2026-03-04 19:21:58.621134,438.44,43823.77,7.786041259765625,6.081517,0.36461857,6.108056,0.37312195,6.5054502,0.3379299,8.637989,0.17547722,6.9388957,0.18022032,6.4791317,0.25010407,6.3016644,0.2714863,6.495659,0.27248877,6.95532,0.24035032,6.6887465,0.15540294,8.467642,0.09868363,7.945856,0.14706893,7.7835956,0.13640904,7.537442,0.13246888,7.9351525,0.12894306,9.55645,0.10115899,7.3386593,0.064108856,7.1973004,0.057989575,7.1263394,0.10523846,8.426306,0.07076136,8.115603,0.09204467,8.759925,0.032229707,7.213613,0.046216693,7.3304486,0.081778236,9.622186,0.01851818,9.01729,0.015241279,8.15478,-0.030925233,10.01463,-0.010993736,8.993502,0.021012625,9.663342,-0.014760401,7.525873,-0.042182595,9.07607,-0.075562544,8.78259,-0.09960629,8.383865,-0.031477507,8.615975,-0.10400798,8.98119,-0.05387853,9.15115,-0.030763185,7.698183,-0.07711469,8.544265,-0.0937712,9.003261,-0.044123895,6.6122212,-0.14319155,8.420339,-0.1416479,7.6652813,-0.09046704,8.23437,-0.10382865,7.023693,-0.10134196,7.296236,-0.16811694,6.8151617,-0.1958182,6.112988,-0.19211619,7.0906,-0.17518078,7.9105115,-0.10701964,6.35918,-0.29346484,6.1786065,-0.25777838
2026-03-04 19:21:58.636100,438.23,43824.61,7.789339065551758,6.10645,0.36896068,6.0313954,0.3820481,6.5501347,0.3530574,8.578172,0.18945995,6.9777236,0.19034146,6.4817905,0.26420376,6.369916,0.2746967,6.533719,0.25686052,6.8733625,0.24709848,6.815477,0.15788768,8.684692,0.105656825,7.9346805,0.14888008,7.760306,0.1389766,7.406296,0.14547002,7.705681,0.1291815,9.692382,0.11217421,7.2703753,0.07216699,7.2358747,0.068152234,7.1476116,0.11380245,8.464295,0.07546757,8.182825,0.08641489,8.6449375,0.03141727,7.332614,0.0449965,7.4969893,0.0931685,9.544338,0.028372837,9.004559,0.01389345,7.9117217,-0.034376685,10.091314,-0.0010802808,8.888346,0.026377892,9.745396,-0.0033657672,7.555673,-0.0331627,9.1681385,-0.07333215,8.842865,-0.10732692,8.449223,-0.034558434,8.446596,-0.10445342,9.062521,-0.046892,9.273846,-0.02337232,7.6238623,-0.060734957,8.525725,-0.08389338,8.884549,-0.03970542,6.7087593,-0.12323404,8.33576,-0.13367733,7.688902,-0.077076234,8.273848,-0.09883232,7.079495,-0.09660805,7.3259835,-0.16630061,6.8512397,-0.20334366,5.9474106,-0.19653474,7.196756,-0.17945461,7.999692,-0.10233837,6.269404,-0.28850958,6.072029,-0.24046475
2026-03-04 19:21:58.646217,438.23,43824.61,7.78877592086792,6.1198688,0.3541831,6.110737,0.37405753,6.514837,0.34225705,8.622637,0.18000406,6.982636,0.17601305,6.484638,0.25017703,6.3010035,0.28314602,6.547631,0.26738644,6.834803,0.24920341,6.8315644,0.15958716,8.58861,0.082914084,7.9800377,0.1281826,7.7153335,0.11373024,7.4207625,0.118796416,7.7657933,0.12266919,9.675366,0.10476341,7.37208,0.056762453,7.2211194,0.053817436,7.086344,0.095674016,8.365842,0.081433184,8.156603,0.09849547,8.702514,0.027639372,7.3347125,0.03831369,7.370345,0.06379512,9.625694,0.003958959,8.938997,-0.0009776526,7.943739,-0.0336088,10.142131,-0.015022951,9.004917,0.02063377,9.686503,-0.013367217,7.41931,-0.05490834,9.140085,-0.06783164,8.733505,-0.09901257,8.571183,-0.033418432,8.496468,-0.10565696,9.165252,-0.05448106,9.179903,-0.04987203,7.736634,-0.093380794,8.483336,-0.113104,8.875507,-0.04681813,6.7067766,-0.14206326,8.463926,-0.15081328,7.69108,-0.08599669,8.171546,-0.11476548,7.0363817,-0.10147244,7.187744,-0.16214712,6.961042,-0.20582005,5.997639,-0.19260241,7.209192,-0.18951574,7.8762116,-0.12726149,6.407441,-0.31292623,6.0583434,-0.2612921
2026-03-04 19:21:58.651122,437.92,43825.77,7.792884826660156,6.063603,0.37524027,6.163164,0.37627122,6.4376936,0.34932452,8.728302,0.19147614,6.8977857,0.19116136,6.6039996,0.2575489,6.379685,0.26856467,6.5240254,0.25943527,6.8463006,0.24802895,6.670138,0.15579088,8.591956,0.10382092,7.9585056,0.14889397,7.796115,0.14162469,7.400422,0.13811448,7.896656,0.12507494,9.549688,0.11375395,7.427688,0.072086014,7.1361566,0.07131184,7.210514,0.117837064,8.445592,0.06981861,8.151382,0.09126983,8.654361,0.037230954,7.2334366,0.03851483,7.4134607,0.08587612,9.616999,0.02514266,9.054236,0.019470412,8.053382,-0.027266122,9.96566,8.756188e-06,9.069102,0.030866865,9.60473,0.00054332666,7.620222,-0.034575764,9.1559725,-0.068869434,8.821353,-0.10041371,8.439867,-0.030579722,8.526505,-0.09851978,8.945166,-0.04471238,9.211305,-0.025021758,7.7544613,-0.06427722,8.491672,-0.088029966,8.993425,-0.03981149,6.573018,-0.12440529,8.4757185,-0.12858108,7.552479,-0.07686944,8.314006,-0.097007275,7.0732017,-0.10007294,7.2794228,-0.16513684,6.908558,-0.20213859,6.0152125,-0.19489163,7.080345,-0.18005818,7.946252,-0.09472913,6.4052815,-0.28531283,6.101819,-0.24328429
2026-03-04 19:21:58.661088,437.26,43828.31,7.7972331047058105,6.098613,0.37536773,6.031174,0.38466254,6.5430174,0.3516259,8.59925,0.20383547,7.014427,0.1984419,6.546604,0.2698423,6.339876,0.26855737,6.536518,0.26101178,6.7860036,0.25188947,6.871379,0.1526477,8.685525,0.102175176,7.9809756,0.13611577,7.7336373,0.12948334,7.3275046,0.1333139,7.6833587,0.1329285,9.708413,0.11135324,7.302858,0.07125454,7.246163,0.082301386,7.1477876,0.11388083,8.439819,0.07181597,8.125644,0.08742269,8.666167,0.037992757,7.3789344,0.04026328,7.47795,0.0796231,9.653462,0.016105788,8.925997,0.012377331,7.8480496,-0.020247696,10.140945,-0.005541686,8.941408,0.031885453,9.710884,0.0010892112,7.4791956,-0.049596824,9.211037,-0.06307129,8.751692,-0.10766758,8.602014,-0.030588651,8.416912,-0.098737225,9.2087965,-0.052530266,9.288932,-0.03175731,7.7543826,-0.0764321,8.437881,-0.093153484,8.769594,-0.03744677,6.7646136,-0.12602766,8.419299,-0.14007936,7.6770115,-0.07065516,8.216071,-0.10900444,7.141276,-0.09730219,7.2159157,-0.17289828,6.992906,-0.20307262,5.9219522,-0.19307232,7.279508,-0.19044778,7.997308,-0.10782832,6.390396,-0.3034123,6.0270414,-0.24426992
2026-03-04 19:21:58.671089,437.59,43828.88,7.800300598144531,6.0939016,0.37761754,6.067777,0.38190335,6.527704,0.3546614,8.615883,0.20063943,7.0121593,0.19291104,6.5675254,0.26973557,6.363315,0.27624744,6.5119963,0.26041174,6.795744,0.25693053,6.8120956,0.15642677,8.682224,0.10314517,7.9562845,0.14264442,7.762314,0.13880096,7.3335547,0.14257354,7.774516,0.12589242,9.652671,0.11571489,7.328663,0.0819791,7.2231655,0.077208996,7.2293816,0.11522773,8.516443,0.07636807,8.135762,0.084716715,8.640354,0.03656731,7.3270187,0.038236417,7.481517,0.086896785,9.593953,0.025054613,9.023154,0.017547792,7.9437995,-0.027498271,10.07555,0.002297096,8.998342,0.031095568,9.683146,0.0021192676,7.5813503,-0.044607792,9.221643,-0.07061491,8.74789,-0.1092947,8.535753,-0.03116602,8.44034,-0.102100074,9.147358,-0.05672404,9.310623,-0.027091203,7.7143188,-0.066899925,8.424382,-0.09264269,8.853308,-0.042034313,6.697853,-0.12440256,8.408553,-0.13096212,7.6178474,-0.073725,8.281101,-0.10034791,7.085723,-0.10339984,7.2313056,-0.1785776,6.9711795,-0.20889077,5.956165,-0.19270827,7.1984663,-0.19086358,8.043188,-0.10620695,6.340179,-0.3015478,6.077211,-0.24572927
2026-03-04 19:21:58.696214,437.66,43829.06,7.819706439971924,6.1433625,0.36239052,6.075309,0.3853653,6.567746,0.357778,8.553547,0.186807,6.99492,0.19182172,6.5248613,0.25389904,6.3209705,0.27219915,6.5033784,0.27433336,6.8572474,0.25244793,6.8626494,0.15383781,8.660708,0.1039556,7.94142,0.1512867,7.7661266,0.13712645,7.44287,0.13612024,7.775508,0.12771174,9.720318,0.11288817,7.33336,0.0739378,7.253631,0.06707519,7.1651945,0.10177185,8.457949,0.0755389,8.202527,0.08729743,8.664824,0.02727729,7.302789,0.04318616,7.477591,0.091215566,9.557885,0.02303807,9.048321,0.017242584,7.9583826,-0.028896488,10.149802,-0.009106602,9.036369,0.030832686,9.701526,-0.005302554,7.526212,-0.047518183,9.25923,-0.07223329,8.812078,-0.098924935,8.578435,-0.033119794,8.478003,-0.10986965,9.132444,-0.045304652,9.292922,-0.021491757,7.720629,-0.069505945,8.536616,-0.09634182,8.912698,-0.028432189,6.7549453,-0.12861058,8.43901,-0.14170831,7.7123384,-0.076189354,8.234426,-0.10695267,7.117522,-0.10042111,7.303139,-0.1625861,6.939403,-0.20415573,6.0273046,-0.19271636,7.2432265,-0.193409,8.11715,-0.095771395,6.3278203,-0.2919625,6.138085,-0.25415564
2026-03-04 19:21:58.701760,437.66,43829.06,7.814262866973877,6.094404,0.35932875,6.1322665,0.36698857,6.4556684,0.3301609,8.732952,0.17664264,6.8936815,0.1723827,6.5770817,0.25285798,6.251689,0.2754354,6.5720487,0.2707221,6.908945,0.24092266,6.707979,0.15804225,8.613653,0.08392748,7.94543,0.1303386,7.802643,0.11928319,7.441678,0.11590275,7.9526267,0.1148863,9.561846,0.1011382,7.455711,0.0554703,7.1682925,0.05351374,7.252215,0.107598074,8.379473,0.076105736,8.177374,0.09258646,8.742944,0.03157588,7.225962,0.042179562,7.416388,0.06850941,9.607826,0.010152602,9.107281,0.0049910797,8.120762,-0.029022045,10.025022,-0.016996138,9.07167,0.013765798,9.602657,-0.017838534,7.602863,-0.045527823,9.1820545,-0.07459527,8.838341,-0.10165601,8.511687,-0.035187297,8.570672,-0.10116479,9.007258,-0.05278092,9.201861,-0.047649067,7.7322803,-0.08392104,8.594081,-0.10482653,9.021743,-0.050760843,6.6153107,-0.14025725,8.48427,-0.14593822,7.617452,-0.09182092,8.321329,-0.10708431,7.100517,-0.095408484,7.308816,-0.16685401,6.9024796,-0.20211092,6.0393333,-0.19185722,7.1229215,-0.18389073,8.000975,-0.114772715,6.4012184,-0.3146706,6.166033,-0.24885322
2026-03-04 19:21:58.731307,444.19,43829.29,7.802830696105957,6.110569,0.38114563,6.106848,0.37980074,6.5334764,0.35303277,8.563648,0.18777671,6.946443,0.18727677,6.596534,0.2558718,6.285193,0.2914606,6.61004,0.27433285,6.775227,0.26283854,6.8477716,0.15370074,8.740531,0.10204434,7.874688,0.14932896,7.75172,0.13216051,7.357754,0.13837136,7.7332525,0.13139497,9.745235,0.11456028,7.369179,0.07378132,7.2057023,0.063289076,7.163916,0.10979943,8.402112,0.09015055,8.2484865,0.08546206,8.636064,0.033848178,7.308008,0.04167134,7.518747,0.07917276,9.505426,0.014740311,8.889531,0.006762807,7.9528713,-0.03485968,10.182177,-0.008201015,9.075941,0.026525827,9.632813,-0.012845133,7.504555,-0.05106205,9.281912,-0.07160497,8.679752,-0.10901452,8.622817,-0.029386574,8.411913,-0.11846976,9.193913,-0.04921941,9.282786,-0.03675792,7.6655493,-0.07466292,8.479098,-0.10102108,8.858932,-0.040651016,6.788391,-0.14200068,8.494286,-0.14947481,7.6072273,-0.08458303,8.195321,-0.10654174,7.190467,-0.1112606,7.1622124,-0.1787601,7.014753,-0.21281381,5.9130745,-0.19936588,7.190453,-0.19063853,8.038725,-0.11809203,6.3903995,-0.3117605,6.1107306,-0.26576236
2026-03-04 19:21:58.736369,444.19,43829.29,7.823395252227783,6.1346807,0.36550012,6.063909,0.39406833,6.528595,0.36967668,8.619696,0.19576648,7.0097704,0.2003591,6.543537,0.24944623,6.3454666,0.28753793,6.5333743,0.28109393,6.8128924,0.2655316,6.9259286,0.16120392,8.686432,0.10105606,8.0175,0.13773973,7.752997,0.12317693,7.3879757,0.12908351,7.7318316,0.13742384,9.747788,0.12677604,7.324173,0.07773527,7.323101,0.07834342,7.1274695,0.10179979,8.438965,0.089518994,8.207262,0.09693873,8.667925,0.042744994,7.356481,0.03956653,7.4851785,0.07373842,9.649677,0.0091351,8.97207,0.005396928,7.9593434,-0.018333737,10.194543,-0.0027341873,9.029342,0.03217111,9.807275,-0.00078848284,7.4642854,-0.050047394,9.207252,-0.068089634,8.765441,-0.10690148,8.57443,-0.027894743,8.5234995,-0.103250705,9.227916,-0.05216453,9.3211355,-0.032568693,7.7043357,-0.09247169,8.500551,-0.10083335,8.885685,-0.043948423,6.7642765,-0.13195528,8.43891,-0.13086723,7.740337,-0.07505983,8.207644,-0.10267096,7.1104794,-0.095343456,7.254105,-0.16367976,7.003112,-0.2063082,6.020642,-0.18902011,7.240322,-0.20368578,8.016379,-0.110393204,6.386869,-0.32000202,6.073773,-0.26742056
2026-03-04 19:21:58.741309,444.19,43829.29,7.824730396270752,6.1696634,0.35296327,5.9979787,0.37813422,6.57268,0.33717752,8.595853,0.17334457,7.026198,0.176651,6.4930387,0.25334644,6.360319,0.27661163,6.516872,0.2745936,6.875546,0.2542421,6.9086776,0.14881557,8.623763,0.08358078,7.932058,0.13656795,7.793724,0.12590791,7.524097,0.12220561,7.770715,0.12088697,9.717819,0.10504716,7.3009205,0.053863052,7.325568,0.057511847,7.1293783,0.100969575,8.469751,0.072193906,8.143372,0.089872286,8.73699,0.0335716,7.3378634,0.042111948,7.449114,0.069878526,9.601932,0.009542592,9.045753,0.01074088,8.021542,-0.032668572,10.161736,-0.015730701,8.951529,0.018183002,9.804945,-0.017956696,7.457299,-0.055972837,9.229488,-0.081052944,8.822038,-0.1004235,8.519488,-0.0340112,8.5788145,-0.10301555,9.203505,-0.055919494,9.24809,-0.04299306,7.7423215,-0.0858232,8.556397,-0.10465775,8.878184,-0.049191512,6.743959,-0.1400869,8.41127,-0.14532398,7.8463364,-0.09168018,8.176686,-0.106819384,7.1100483,-0.09438839,7.293113,-0.16781358,6.896609,-0.1976017,6.072143,-0.1833189,7.258044,-0.19218697,8.038215,-0.10936192,6.326034,-0.31104955,6.118497,-0.26389897
2026-03-04 19:21:58.761335,444.78,43829.98,7.8408989906311035,6.171865,0.35067594,6.0362554,0.38764793,6.5773015,0.352229,8.6324835,0.17936637,7.00794,0.17952016,6.521239,0.25966275,6.307922,0.27784184,6.4913855,0.27689967,6.9015837,0.26409993,6.961616,0.15883641,8.676388,0.08086144,8.026048,0.12347809,7.745482,0.112005726,7.484322,0.118217655,7.7812967,0.12166106,9.714154,0.107496016,7.3469644,0.05534475,7.3389006,0.058868773,7.1291475,0.100679524,8.444367,0.07911194,8.187485,0.09140363,8.788108,0.03718877,7.3739185,0.039649595,7.410244,0.06094347,9.671654,0.0026846991,8.989245,-0.0016876898,8.046482,-0.033575628,10.232514,-0.013765993,9.058712,0.016506135,9.785609,-0.020176759,7.4411936,-0.056778945,9.213469,-0.07359884,8.733298,-0.11005727,8.58319,-0.030143308,8.585013,-0.10210617,9.238432,-0.060048405,9.274883,-0.050176676,7.717679,-0.09771469,8.553164,-0.1146546,8.955738,-0.057609655,6.7854033,-0.14198506,8.505842,-0.15161717,7.782213,-0.096380375,8.139075,-0.112077974,7.170946,-0.09032461,7.2669125,-0.15582165,6.973483,-0.19957131,6.1020355,-0.18923411,7.302951,-0.21051683,8.102376,-0.12523107,6.353115,-0.32433924,6.105677,-0.2813734
2026-03-04 19:21:58.766330,444.78,43829.98,7.82582950592041,6.1581073,0.33295238,6.080953,0.36312878,6.5831594,0.3288526,8.66515,0.15377507,6.9528236,0.16012806,6.5338364,0.24926801,6.304004,0.27140355,6.5184145,0.28113848,6.9578805,0.2431273,6.795223,0.14963216,8.653767,0.07028625,7.9576077,0.1283842,7.776521,0.105869584,7.5343375,0.1158291,7.8643036,0.12037261,9.64092,0.091234356,7.3295794,0.03225561,7.272932,0.036868088,7.172297,0.092428364,8.410402,0.07367518,8.22253,0.09968269,8.728669,0.025470752,7.254589,0.038810384,7.46466,0.051936895,9.591815,-0.003249466,9.077953,-0.0031631256,8.088151,-0.031993043,10.123483,-0.025553238,9.056345,-0.0063914503,9.702078,-0.027492495,7.58136,-0.065854646,9.115702,-0.08344413,8.785939,-0.107287616,8.4993925,-0.028067304,8.579357,-0.109259106,9.114643,-0.06023202,9.217042,-0.05062172,7.6569996,-0.102666095,8.598171,-0.11808068,9.055859,-0.05611389,6.663369,-0.15687603,8.500573,-0.1648189,7.723347,-0.10823167,8.255649,-0.11738316,7.08952,-0.097073816,7.3355565,-0.16066243,6.906042,-0.18791506,6.0900435,-0.19054723,7.1561184,-0.18405262,8.035724,-0.13519606,6.3352003,-0.3212936,6.1750536,-0.26838452
2026-03-04 19:21:58.771422,445.64,43832.53,7.829981803894043,6.186979,0.36264363,5.98642,0.37540263,6.561791,0.35901597,8.609389,0.18046542,7.048274,0.17968288,6.4644675,0.2595725,6.340184,0.28571072,6.5261483,0.26940712,6.934092,0.26375392,6.9371767,0.14103179,8.678301,0.08036173,7.986074,0.1228136,7.790789,0.11451307,7.4758267,0.116364144,7.761731,0.121439695,9.727924,0.11842228,7.2941937,0.06513612,7.3420477,0.06085862,7.0673566,0.112178534,8.43734,0.08292727,8.192131,0.09212766,8.718367,0.039904203,7.4521246,0.030457744,7.4631567,0.062331367,9.666488,0.001057809,9.003948,-0.0059148557,8.008825,-0.02968559,10.227549,-0.0075701494,8.981515,0.02137015,9.838651,-0.010999271,7.399473,-0.053582873,9.168249,-0.071781,8.754255,-0.10274673,8.528263,-0.034482446,8.555917,-0.099228136,9.247906,-0.062861465,9.279165,-0.05156559,7.6872597,-0.10381788,8.610833,-0.11556263,8.880139,-0.053512752,6.7466407,-0.1352804,8.397755,-0.14440675,7.81141,-0.09911804,8.159139,-0.10878212,7.140962,-0.087076776,7.2562933,-0.16618784,6.952993,-0.2115875,6.0775084,-0.1810532,7.2946243,-0.20028946,8.024024,-0.13157299,6.383912,-0.3207508,6.093111,-0.2816414
2026-03-04 19:21:58.776380,445.32,43835.04,7.844688892364502,6.1213503,0.3765239,6.07581,0.392451,6.5073175,0.36649215,8.673485,0.19149609,7.0339684,0.1907525,6.595313,0.26651043,6.336612,0.2684202,6.5128865,0.27400982,6.8027353,0.2585902,6.8701143,0.16634473,8.66927,0.10978615,7.932266,0.15992168,7.805131,0.15037562,7.3963113,0.15040453,7.8002424,0.13612221,9.678658,0.12082811,7.3907437,0.075041175,7.312679,0.06704916,7.218751,0.11806198,8.495173,0.0768165,8.201686,0.0917443,8.662643,0.035383876,7.3227706,0.05248427,7.505675,0.09066181,9.65064,0.03156888,9.068293,0.02733689,8.030092,-0.031327337,10.158749,0.0014375645,9.138495,0.02862801,9.70857,-0.008206386,7.5791554,-0.035048988,9.324254,-0.06893438,8.8245535,-0.10939954,8.585163,-0.031182779,8.556414,-0.10268436,9.171448,-0.044164278,9.337857,-0.023854977,7.6943207,-0.053819448,8.524923,-0.08254038,8.969537,-0.038286604,6.726594,-0.12862837,8.493072,-0.13680688,7.754831,-0.07812229,8.312615,-0.09806684,7.2557273,-0.09820145,7.2845626,-0.16583191,6.9515734,-0.20651723,6.0347795,-0.19582027,7.2498274,-0.19037199,8.102743,-0.095407926,6.3843365,-0.297074,6.12912,-0.24915597
2026-03-04 19:21:58.806488,445.12,43836.99,7.851308345794678,6.155606,0.33924866,6.040224,0.37358725,6.542776,0.3351433,8.665751,0.160367,7.030197,0.1667091,6.5122724,0.2461469,6.315069,0.26753584,6.532625,0.27777088,6.9281783,0.25863293,6.924866,0.15111324,8.64872,0.06572646,7.964492,0.11812459,7.8012023,0.10882674,7.505122,0.10590278,7.851554,0.11884596,9.730603,0.09707239,7.3415747,0.035363775,7.3368063,0.040649034,7.177882,0.0967188,8.388251,0.07732605,8.201299,0.09442524,8.7962675,0.030447874,7.3595705,0.040352758,7.4495983,0.048961066,9.661599,-0.0013808473,9.053758,-0.0027610615,8.082176,-0.03597526,10.205833,-0.02712361,9.0526,0.0011146097,9.783538,-0.032258224,7.4717617,-0.06499546,9.222232,-0.079390176,8.781118,-0.10058064,8.595975,-0.02776713,8.616228,-0.10518985,9.250434,-0.05765872,9.234232,-0.05733287,7.709786,-0.099213175,8.581156,-0.12659287,8.9537735,-0.056196734,6.7807627,-0.1603906,8.464403,-0.16537483,7.8517456,-0.109862156,8.230455,-0.11853811,7.129389,-0.08942012,7.29662,-0.1571837,6.984587,-0.19495901,6.1375675,-0.18989713,7.295787,-0.1973544,8.113034,-0.12810053,6.408845,-0.32474583,6.118168,-0.27704355
2026-03-04 19:21:58.816487,445.38,43836.7,7.851433753967285,6.0968037,0.35348845,6.188588,0.36792818,6.4591055,0.33826014,8.737258,0.16826825,6.9175706,0.16917929,6.6417947,0.25143486,6.423003,0.27107877,6.519513,0.27150244,6.827942,0.2490052,6.755493,0.14530231,8.667364,0.07935877,7.9619756,0.12508497,7.781862,0.10645938,7.4493346,0.12283644,7.950324,0.11766695,9.611359,0.10728923,7.444857,0.04841712,7.266752,0.049801182,7.3368955,0.0971886,8.506754,0.07402847,8.167674,0.08706389,8.685648,0.025869826,7.186891,0.037458956,7.488782,0.06689165,9.6431265,0.0024866387,9.132181,-0.007443844,8.177112,-0.02884199,10.012787,-0.0111279925,9.1611595,0.013288435,9.659708,-0.016935606,7.726611,-0.054359283,9.260926,-0.07477098,8.867955,-0.10300655,8.489163,-0.03474695,8.590037,-0.10549355,9.030953,-0.05596622,9.305583,-0.04759321,7.7361736,-0.096995406,8.531663,-0.11620281,9.061264,-0.043488853,6.6151886,-0.12913585,8.541316,-0.14941794,7.745716,-0.09280854,8.447636,-0.110085234,7.2164845,-0.09256468,7.366102,-0.16064246,6.9156704,-0.19938456,6.1321154,-0.17468144,7.111257,-0.18906598,8.145563,-0.12110839,6.355542,-0.31742907,6.2220097,-0.26621732
2026-03-04 19:21:58.821366,445.38,43836.7,7.850693225860596,6.188511,0.36334598,6.051318,0.3843437,6.5567245,0.3457688,8.715855,0.18507187,7.027131,0.18456988,6.522105,0.26765224,6.3886538,0.27172524,6.524069,0.2861416,6.885593,0.26056227,6.844944,0.17121536,8.598606,0.090804756,8.017045,0.14687535,7.8306594,0.14213842,7.4949694,0.12661026,7.835935,0.12501068,9.671475,0.10990666,7.381381,0.06408284,7.319176,0.06369585,7.1975393,0.11041729,8.449536,0.06922211,8.201897,0.09165493,8.720067,0.03911103,7.3740396,0.048584543,7.4625425,0.077550836,9.681138,0.017629895,9.154523,0.021142213,8.115128,-0.03520059,10.1226635,-0.008563367,9.039663,0.013589992,9.762884,-0.011367912,7.5564895,-0.05311052,9.17058,-0.0828748,8.8545265,-0.10187936,8.54619,-0.030530123,8.654463,-0.10728601,9.179982,-0.05718233,9.324434,-0.03194764,7.7199864,-0.07691755,8.591878,-0.098377064,8.943093,-0.05830231,6.7023873,-0.14230882,8.407544,-0.14385183,7.7660465,-0.099622056,8.28851,-0.112118535,7.087401,-0.09741328,7.3081408,-0.15983869,6.977005,-0.20331575,6.1787,-0.19686565,7.17955,-0.19985186,8.144329,-0.10387542,6.357491,-0.31567997,6.16157,-0.2587494
2026-03-04 19:21:58.831399,446.23,43835.72,7.847080707550049,6.190402,0.3705109,6.011286,0.39338732,6.604463,0.3593435,8.619933,0.17085315,7.0232058,0.18810388,6.505006,0.2598286,6.3987274,0.28425944,6.531022,0.2739248,6.911807,0.2650027,6.8520584,0.15207972,8.6504135,0.08522744,7.957038,0.13268828,7.8290324,0.11164596,7.5285287,0.1284707,7.814564,0.13061622,9.737151,0.12077053,7.283595,0.062461015,7.3408623,0.067105986,7.1390324,0.10276188,8.439497,0.083072655,8.19114,0.095006146,8.779583,0.03835388,7.309728,0.03269576,7.4724355,0.06957777,9.6316805,0.012873356,9.075478,-0.004698967,8.089136,-0.021838274,10.2499075,-0.0013494616,9.020256,0.022357518,9.780221,-0.0070850016,7.470791,-0.051708538,9.208164,-0.07109188,8.844222,-0.10983826,8.597271,-0.03753647,8.624909,-0.097600035,9.241904,-0.06359698,9.298956,-0.048281044,7.699698,-0.09822087,8.646163,-0.10908615,8.973815,-0.04402065,6.7476907,-0.12340129,8.396708,-0.14530912,7.7983246,-0.08935634,8.198477,-0.09693581,7.183767,-0.08679272,7.3085403,-0.1644524,6.923738,-0.203907,6.0729637,-0.18689063,7.2115793,-0.19620277,8.140034,-0.12290451,6.3815827,-0.31856966,6.111655,-0.27909216
2026-03-04 19:21:58.836470,447.18,43834.64,7.849560260772705,6.1762447,0.38319734,6.0138106,0.3886657,6.592852,0.36718386,8.589938,0.19475102,7.0392795,0.1986671,6.524162,0.27309117,6.3335977,0.27750435,6.52778,0.27613735,6.8910275,0.26639682,6.946031,0.16180496,8.726584,0.112065844,7.971825,0.15657666,7.806115,0.14839996,7.4254537,0.15049364,7.741616,0.1346604,9.830306,0.12502211,7.2833223,0.08377542,7.3322935,0.07383971,7.1325684,0.117136784,8.423257,0.07826725,8.206677,0.08408071,8.7031,0.042443093,7.4082427,0.04335547,7.5186286,0.09470596,9.633972,0.03469191,9.023899,0.030518401,8.04509,-0.035019994,10.318446,0.0060799336,9.001709,0.036623944,9.72366,-0.0017714314,7.5128803,-0.04192011,9.224789,-0.07379651,8.784799,-0.10980918,8.665438,-0.028880868,8.558004,-0.10203755,9.326713,-0.050292283,9.333715,-0.017708782,7.662556,-0.05463817,8.56422,-0.081041455,8.893367,-0.03651562,6.8357706,-0.12480078,8.465647,-0.13285492,7.8103614,-0.078923486,8.219072,-0.09547557,7.154437,-0.100223795,7.305701,-0.16574292,7.022955,-0.20876285,6.0158386,-0.19260663,7.255013,-0.18763031,8.176779,-0.0998387,6.3314404,-0.3046255,6.166131,-0.24168114
2026-03-04 19:21:58.841522,448.46,43833.6,7.852200984954834,6.1903167,0.35980427,6.002278,0.39224604,6.5358787,0.35732135,8.612957,0.1785448,7.0672727,0.18610008,6.524589,0.25714052,6.342363,0.28090286,6.5426264,0.28601608,6.9348726,0.26761574,6.918034,0.15756507,8.718471,0.082549,7.9126496,0.14314534,7.796719,0.12288576,7.484917,0.12819946,7.769901,0.13521232,9.735285,0.11135545,7.289415,0.054189503,7.3765206,0.06051892,7.1648846,0.1004387,8.429835,0.081386305,8.237722,0.10086018,8.76192,0.03390306,7.340044,0.049111485,7.4747863,0.066432945,9.636114,0.013217466,9.028899,0.006467046,8.038719,-0.020911345,10.251196,-0.0147079835,9.015264,0.014896741,9.818994,-0.014276908,7.4649096,-0.0649081,9.217822,-0.0831235,8.850571,-0.105498046,8.639621,-0.0273722,8.610885,-0.10591673,9.288743,-0.05327607,9.259718,-0.040911973,7.659697,-0.09369853,8.636057,-0.11023563,8.9599285,-0.048803743,6.7942514,-0.15010965,8.428309,-0.16122207,7.8854895,-0.09398252,8.22032,-0.11231125,7.1603756,-0.0924464,7.3318295,-0.15736678,6.9108477,-0.20585974,6.0809355,-0.18896577,7.2661433,-0.20144236,8.140377,-0.11444,6.398081,-0.3210094,6.1561065,-0.2675864
2026-03-04 19:21:58.846495,448.8,43832.57,7.862997055053711,6.18614,0.37767094,6.0161495,0.38844895,6.526491,0.35783246,8.623803,0.19271794,7.098026,0.18904339,6.5683403,0.26625535,6.400754,0.2767217,6.513448,0.2771358,6.8601427,0.27265194,6.9445715,0.1630552,8.734869,0.104821324,7.9505467,0.15195407,7.7927346,0.14957435,7.4233437,0.14372757,7.747731,0.13155545,9.769039,0.11860001,7.3535104,0.077282555,7.3662534,0.06324891,7.195796,0.10835792,8.466757,0.07790514,8.240184,0.0916126,8.725744,0.035100497,7.4130015,0.046215307,7.5456767,0.08416485,9.681866,0.026652353,9.034162,0.02432182,8.004692,-0.04066689,10.24964,-0.0023390518,9.055904,0.028787399,9.791465,-0.0067432923,7.512055,-0.04931681,9.271309,-0.08052772,8.811556,-0.10754281,8.623538,-0.030944087,8.575731,-0.10705661,9.30353,-0.05282231,9.334158,-0.024339693,7.731525,-0.067697145,8.538407,-0.08794281,8.926223,-0.04720507,6.816306,-0.14206047,8.484454,-0.14259276,7.8605304,-0.09262445,8.298172,-0.10399965,7.187243,-0.10707783,7.3311543,-0.16428988,6.996895,-0.20749246,6.0703816,-0.19652735,7.2723937,-0.19584215,8.167501,-0.10827252,6.354843,-0.30473566,6.127132,-0.25897238
2026-03-04 19:21:58.856546,448.75,43831.91,7.861824035644531,6.2235203,0.3353116,6.065507,0.3734211,6.624772,0.34704128,8.565729,0.16068625,7.046438,0.16414323,6.578602,0.25300512,6.392976,0.283097,6.553393,0.29410785,6.786928,0.27124712,7.001457,0.15638928,8.705613,0.06068479,7.996262,0.12066655,7.7936954,0.105716385,7.3810997,0.09900826,7.769147,0.11672147,9.811847,0.09997563,7.3119235,0.04071679,7.380773,0.0371807,7.2105722,0.088222735,8.451357,0.07669633,8.167087,0.09852945,8.6581545,0.044234302,7.3839297,0.039016828,7.530371,0.043411095,9.64271,-0.010393107,9.022748,-0.005648037,7.9822464,-0.04170747,10.273493,-0.025150834,9.066305,0.002720608,9.767129,-0.0365179,7.4962378,-0.07260153,9.326902,-0.07724262,8.756073,-0.1088596,8.665392,-0.026924679,8.509943,-0.10515573,9.305202,-0.06258699,9.367898,-0.06308711,7.7518253,-0.10806462,8.487165,-0.12930767,8.901948,-0.060590867,6.81224,-0.15667674,8.516078,-0.16800338,7.880133,-0.10945668,8.221979,-0.12116211,7.2445264,-0.09488114,7.265879,-0.14988664,7.070945,-0.19108921,6.0166807,-0.17563896,7.2917614,-0.21252455,8.268136,-0.14331456,6.3000326,-0.3412572,6.2121053,-0.29841107
2026-03-04 19:21:58.861447,448.75,43831.91,7.863794326782227,6.1183057,0.3548938,6.1612663,0.37250295,6.4502287,0.3399647,8.75822,0.16463278,6.9670706,0.16475376,6.582066,0.25677007,6.355727,0.26823628,6.52252,0.2755659,6.9427357,0.25140744,6.772066,0.15243314,8.617373,0.07149639,7.9589524,0.12411761,7.8148394,0.11082411,7.5741043,0.11730076,8.040671,0.122329585,9.607722,0.10265136,7.438282,0.045303516,7.2797008,0.05334633,7.2385383,0.10199081,8.395877,0.07204365,8.190236,0.09308606,8.810074,0.02848251,7.248774,0.039271776,7.4128785,0.06100598,9.679698,0.0013278705,9.17078,-0.0014583637,8.254664,-0.028952412,10.135793,-0.016218022,9.191231,0.0061301542,9.714513,-0.020031687,7.582733,-0.057891022,9.190501,-0.07588402,8.838641,-0.10426304,8.581513,-0.030171463,8.716508,-0.09950785,9.104412,-0.05234291,9.281172,-0.05384396,7.6998334,-0.08989703,8.640636,-0.10981969,9.147829,-0.048493236,6.6434536,-0.14735986,8.566447,-0.15298167,7.767615,-0.098092355,8.343479,-0.1047958,7.109276,-0.08423867,7.356843,-0.15820469,6.9367027,-0.19675471,6.167266,-0.17804636,7.0888786,-0.18590957,8.113391,-0.11758506,6.456446,-0.30909845,6.178814,-0.26777828
2026-03-04 19:21:58.866604,448.75,43831.91,7.872572898864746,6.1576405,0.3568601,6.1587744,0.36870468,6.4386535,0.33563882,8.772673,0.16010338,6.9068165,0.16521569,6.6271877,0.2534192,6.463214,0.2652527,6.570292,0.26343054,6.917906,0.242083,6.7906814,0.14037304,8.741435,0.08187149,7.9079003,0.13165118,7.8681636,0.1140848,7.5325413,0.13202575,7.9324446,0.11975785,9.63401,0.10651968,7.483186,0.055957902,7.2573066,0.054009423,7.3345847,0.09950057,8.449085,0.071189106,8.264881,0.08333556,8.707626,0.023687167,7.199996,0.039457772,7.534903,0.07466894,9.60721,0.014492873,9.2052965,0.008985556,8.196664,-0.029066598,10.027243,-0.009757698,9.190591,0.01711108,9.745404,-0.014246043,7.747762,-0.044540577,9.327426,-0.07322421,8.905415,-0.103910096,8.528134,-0.033292763,8.5983925,-0.10374482,9.06071,-0.0518947,9.31637,-0.03284991,7.712835,-0.08404027,8.622998,-0.09909104,9.069503,-0.03951391,6.624302,-0.12736422,8.541617,-0.14234725,7.7703686,-0.08791613,8.50205,-0.09685139,7.2071486,-0.086412884,7.366481,-0.15888518,6.9346294,-0.19428225,6.0679107,-0.1734956,7.064519,-0.17321564,8.185259,-0.10261709,6.3492284,-0.2918045,6.2463546,-0.25017804
2026-03-04 19:21:58.871523,448.67,43831.62,7.868870735168457,6.149696,0.38125837,6.051864,0.39648438,6.5217495,0.36175156,8.736878,0.18549863,6.940588,0.20066585,6.577852,0.26928884,6.394916,0.27900487,6.531778,0.27379,6.88807,0.25422713,6.8565226,0.16801156,8.70375,0.111003,7.9502816,0.14987774,7.8434715,0.13739073,7.527563,0.1537135,7.8930206,0.14052247,9.687654,0.123416245,7.418919,0.07128525,7.3406577,0.078009,7.2387514,0.10436214,8.459927,0.07642709,8.265034,0.09194836,8.744537,0.03412028,7.281693,0.05112338,7.4944353,0.09144109,9.655817,0.02420685,9.119388,0.022261197,8.155618,-0.023299262,10.175073,-0.0001627327,9.1786585,0.033190787,9.744563,-7.3376024e-05,7.5577307,-0.04373896,9.277371,-0.07431227,8.869877,-0.11290785,8.584526,-0.034204036,8.588364,-0.10819926,9.189146,-0.04953207,9.308616,-0.020016572,7.743206,-0.08132915,8.557054,-0.08639413,9.017545,-0.035142653,6.7227917,-0.13190036,8.568713,-0.14036417,7.8106837,-0.0750528,8.267519,-0.10460928,7.2567286,-0.09725749,7.3551936,-0.1706537,6.977699,-0.20151265,6.0969467,-0.18814266,7.1819835,-0.18550856,8.151658,-0.09546706,6.3703265,-0.30014408,6.198839,-0.26283944
2026-03-04 19:21:58.876544,448.67,43831.62,7.874621868133545,6.1851597,0.35322005,6.056874,0.3872374,6.544939,0.3534294,8.648632,0.16860431,7.032894,0.1676148,6.581238,0.25819847,6.394472,0.27896923,6.584013,0.28872195,6.835983,0.27116075,7.0102587,0.15695259,8.730451,0.06700225,8.009317,0.13003,7.795603,0.11513634,7.434026,0.113119625,7.777449,0.12378185,9.822454,0.112665616,7.4058485,0.04324468,7.3644404,0.042914763,7.2197275,0.10052815,8.446345,0.07994391,8.245117,0.096738994,8.711525,0.038855184,7.3622556,0.039447527,7.4996314,0.048837714,9.683426,-0.0035198692,9.025947,-0.0072130198,8.00863,-0.042262547,10.296331,-0.020945892,9.141248,0.000705221,9.769714,-0.03142988,7.4866157,-0.0641878,9.319866,-0.07792742,8.777549,-0.109120615,8.691104,-0.024139447,8.556841,-0.11389672,9.320028,-0.059744734,9.410315,-0.057705976,7.7323027,-0.099131376,8.577009,-0.11884423,8.911679,-0.05803458,6.802348,-0.15804802,8.558202,-0.17650715,7.861747,-0.11353193,8.233402,-0.11432296,7.275231,-0.08921376,7.252909,-0.15456572,7.0413513,-0.20002168,6.061224,-0.18790515,7.239428,-0.20883927,8.237525,-0.13764535,6.360716,-0.32590246,6.148979,-0.28732082
2026-03-04 19:21:58.881547,448.67,43831.62,7.8720526695251465,6.15276,0.352836,6.1156855,0.36818185,6.5276575,0.3391263,8.733043,0.15991013,6.9173193,0.16484852,6.5652733,0.263509,6.382986,0.26277936,6.472031,0.2749343,6.9718976,0.24393228,6.8162355,0.16414142,8.684769,0.08776228,7.9943,0.15235151,7.8353357,0.13091025,7.5509906,0.13882524,7.996303,0.12651427,9.60985,0.104917616,7.393353,0.045242295,7.2976093,0.04578511,7.264494,0.11707295,8.437366,0.06905552,8.175927,0.09137259,8.786823,0.023057915,7.2446136,0.049553663,7.4736605,0.08059414,9.750061,0.019210849,9.122418,0.016905192,8.261497,-0.034629587,10.098611,-0.0139589235,9.18831,0.00444935,9.7394495,-0.021077242,7.665111,-0.046406593,9.171432,-0.07808825,8.881487,-0.10967407,8.560001,-0.029816732,8.745358,-0.10828198,9.131571,-0.047722794,9.294994,-0.035554014,7.708423,-0.071276546,8.604541,-0.09619317,9.136908,-0.041305676,6.653474,-0.1407828,8.55506,-0.15623534,7.792474,-0.102709085,8.382189,-0.09516704,7.133908,-0.09504279,7.3322706,-0.15760821,6.943291,-0.19129382,6.2402964,-0.18866514,7.1291513,-0.1815121,8.137014,-0.10750145,6.3705125,-0.29167357,6.2166414,-0.26259962
