WIFI_Timestamp,Aligned_ECG,Aligned_Breath,WIFI_Mean_Mag,CSI_Mag_0,CSI_Phase_0,CSI_Mag_1,CSI_Phase_1,CSI_Mag_2,CSI_Phase_2,CSI_Mag_3,CSI_Phase_3,CSI_Mag_4,CSI_Phase_4,CSI_Mag_5,CSI_Phase_5,CSI_Mag_6,CSI_Phase_6,CSI_Mag_7,CSI_Phase_7,CSI_Mag_8,CSI_Phase_8,CSI_Mag_9,CSI_Phase_9,CSI_Mag_10,CSI_Phase_10,CSI_Mag_11,CSI_Phase_11,CSI_Mag_12,CSI_Phase_12,CSI_Mag_13,CSI_Phase_13,CSI_Mag_14,CSI_Phase_14,CSI_Mag_15,CSI_Phase_15,CSI_Mag_16,CSI_Phase_16,CSI_Mag_17,CSI_Phase_17,CSI_Mag_18,CSI_Phase_18,CSI_Mag_19,CSI_Phase_19,CSI_Mag_20,CSI_Phase_20,CSI_Mag_21,CSI_Phase_21,CSI_Mag_22,CSI_Phase_22,CSI_Mag_23,CSI_Phase_23,CSI_Mag_24,CSI_Phase_24,CSI_Mag_25,CSI_Phase_25,CSI_Mag_26,CSI_Phase_26,CSI_Mag_27,CSI_Phase_27,CSI_Mag_28,CSI_Phase_28,CSI_Mag_29,CSI_Phase_29,CSI_Mag_30,CSI_Phase_30,CSI_Mag_31,CSI_Phase_31,CSI_Mag_32,CSI_Phase_32,CSI_Mag_33,CSI_Phase_33,CSI_Mag_34,CSI_Phase_34,CSI_Mag_35,CSI_Phase_35,CSI_Mag_36,CSI_Phase_36,CSI_Mag_37,CSI_Phase_37,CSI_Mag_38,CSI_Phase_38,CSI_Mag_39,CSI_Phase_39,CSI_Mag_40,CSI_Phase_40,CSI_Mag_41,CSI_Phase_41,CSI_Mag_42,CSI_Phase_42,CSI_Mag_43,CSI_Phase_43,CSI_Mag_44,CSI_Phase_44,CSI_Mag_45,CSI_Phase_45,CSI_Mag_46,CSI_Phase_46,CSI_Mag_47,CSI_Phase_47,CSI_Mag_48,CSI_Phase_48,CSI_Mag_49,CSI_Phase_49,CSI_Mag_50,CSI_Phase_50,CSI_Mag_51,CSI_Phase_51
2026-03-04 19:20:15.057010,102.98,44663.68,8.160965919494629,6.7227817,0.2735778,6.729704,0.2955365,6.3505845,0.18318108,8.555231,0.37569353,7.371825,0.30061644,6.8895655,0.24364595,6.5711045,0.1763626,6.9874706,0.24547552,7.494454,0.0846691,6.825723,0.17200051,8.756816,0.21490434,8.855902,0.12652685,7.7248,0.19483006,8.050508,0.05464553,8.381968,0.11644039,10.10434,0.041542128,7.484096,0.10074516,6.8126864,0.17069165,7.520401,0.14743547,9.135726,0.052424088,8.631613,0.040946204,9.290877,0.012544137,7.35499,0.06452548,7.605644,0.039481413,10.339438,-0.00310348,9.151433,0.03332616,8.630207,0.007317924,10.681154,-0.009276372,9.244846,-0.0014896095,9.926913,-0.0454541,8.104718,0.013660931,9.451248,-0.042052623,9.440479,-0.07894872,8.544476,-0.052954245,8.610789,-0.05278263,8.745462,-0.024691997,9.635588,-0.03386133,8.004885,-0.015532437,9.090347,-0.10467699,9.550614,-0.094722286,6.9929733,-0.08509419,8.747765,-0.02816111,7.259532,-0.04190787,9.111717,-0.18405676,7.9869633,-0.13936807,8.100828,-0.17154425,7.4372687,-0.18885435,6.9813027,-0.24773797,8.06949,-0.18450662,7.2706184,-0.06559907,6.9731364,-0.26060012,6.0772076,-0.14945373
2026-03-04 19:20:15.071993,102.98,44663.68,8.170035362243652,6.7393575,0.25188857,6.6985464,0.29088947,6.244928,0.18671891,8.671324,0.3605215,7.3912773,0.3071891,6.7075405,0.24040213,6.471062,0.1944939,6.9486084,0.27018955,7.5733194,0.09879183,6.814828,0.16468576,8.706575,0.17819367,8.900356,0.08014142,7.749738,0.12805493,8.1483555,0.015590998,8.363177,0.12221113,10.166506,0.032320384,7.5592346,0.080075905,6.868543,0.18281797,7.3069363,0.13907927,8.988986,0.06321505,8.621077,0.058063004,9.349138,0.02189862,7.4092646,0.043493938,7.6506376,-0.011465211,10.396136,-0.044621676,9.199962,-0.018396871,8.667066,0.0127936965,10.847049,-0.020849813,9.239024,-0.022684246,9.97767,-0.060428083,8.050851,-0.010727522,9.266605,-0.025282374,9.5544405,-0.08524487,8.668363,-0.0506906,8.758718,-0.047114596,8.896295,-0.043155517,9.6194,-0.085111804,7.990756,-0.07578087,9.210936,-0.1572106,9.446216,-0.11218835,7.1004567,-0.092223115,8.804146,-0.051488206,7.1792006,-0.054229546,8.971719,-0.21346779,7.849337,-0.12779407,8.037129,-0.1923201,7.440587,-0.18263885,7.025043,-0.24554741,8.086754,-0.22488335,7.2523093,-0.12886526,7.139192,-0.32258493,6.1171503,-0.19163498
2026-03-04 19:20:15.076975,102.98,44663.68,8.174943923950195,6.802236,0.2738846,6.7432,0.28259888,6.421069,0.19160233,8.5315,0.378263,7.3745794,0.31704044,6.7918005,0.2333043,6.6519384,0.1775288,7.043034,0.25018436,7.5824766,0.07841292,6.8719587,0.18168704,8.681795,0.22934529,8.874986,0.12137747,7.8058105,0.19179396,8.119726,0.0525395,8.370213,0.119602084,10.304694,0.04997469,7.3681526,0.0952525,6.776508,0.19757614,7.489791,0.14360894,9.168396,0.054529384,8.684156,0.049367227,9.337064,0.012682965,7.3518496,0.068213016,7.607492,0.053485427,10.328209,0.0058173207,9.189757,0.033660777,8.487172,0.013928192,10.78677,-0.0038252824,9.178949,-0.012487706,9.916127,-0.033771157,8.105007,0.005045581,9.508905,-0.0248728,9.542011,-0.07708317,8.560332,-0.04507922,8.585763,-0.058792755,8.723864,-0.008115179,9.730855,-0.02103691,7.959661,-0.010415649,9.242775,-0.09975545,9.4589205,-0.08674811,7.1773148,-0.07340366,8.633493,-0.029076401,7.1152515,-0.019477202,9.071019,-0.17525865,8.001228,-0.12693244,8.083344,-0.17877086,7.490824,-0.1791911,7.058583,-0.23137224,8.10418,-0.18363802,7.194578,-0.05851245,7.0201197,-0.26689735,6.087685,-0.1452235
2026-03-04 19:20:15.087134,102.98,44663.68,8.191079139709473,6.9587092,0.33314607,6.5214205,0.32289317,6.861428,0.23581442,8.204054,0.41172722,7.7361155,0.3314209,6.5710344,0.2534491,6.59713,0.17518252,7.019429,0.24953929,7.6634398,0.09673169,7.2748923,0.20040737,8.729347,0.2707724,8.842552,0.16426833,7.664177,0.23143631,8.18108,0.113094375,8.077716,0.1352525,10.636565,0.080843054,7.0098677,0.13354544,7.018668,0.20848417,7.1422276,0.16502069,9.147552,0.056276765,8.685966,0.050615516,9.429951,0.030169996,7.74559,0.08903367,7.6563945,0.100074284,10.326611,0.03422572,8.963321,0.06586721,8.387297,0.03350747,11.206521,0.02490459,8.845249,0.015124223,10.314629,-0.013341718,7.6229544,0.0368132,9.425854,-0.026312195,9.547111,-0.08056596,8.615403,-0.045616493,8.588818,-0.052561022,9.11759,0.010356527,9.702702,0.011098895,7.905257,0.018930806,9.266101,-0.048496306,9.241007,-0.063019596,7.47196,-0.058560986,8.273173,-0.0027897493,7.452267,-0.0070019756,8.773669,-0.15627313,7.9622602,-0.13911901,8.161215,-0.1709355,7.5679393,-0.18523335,7.1394105,-0.23382519,8.480514,-0.1619768,7.147376,-0.015550366,7.0504556,-0.22172613,6.004162,-0.1307881
2026-03-04 19:20:15.097080,102.98,44663.68,8.185232162475586,6.6880302,0.2824551,6.802788,0.30801842,6.2429423,0.209124,8.633825,0.40680757,7.2462683,0.34240004,7.013589,0.24481252,6.6148863,0.18317436,7.0510306,0.23927337,7.5082035,0.08946645,6.871137,0.16825816,8.7516575,0.23549923,8.994815,0.10679242,7.7345934,0.17254724,8.01148,0.060873356,8.351785,0.13193558,10.160756,0.06877692,7.5853577,0.13142681,6.5750327,0.23593093,7.682186,0.1487738,9.264734,0.06277081,8.688491,0.037842028,9.293439,0.026016796,7.361987,0.051497877,7.621602,0.05057264,10.40219,-0.005798081,9.182509,0.018884888,8.432255,0.033818327,10.654755,0.020304713,9.428427,0.022569587,9.672091,-0.009587854,8.204283,0.020468554,9.541701,-0.011720463,9.483549,-0.09101166,8.726856,-0.049877487,8.467713,-0.04220432,8.743413,-0.017513502,9.842977,-0.021335112,8.075953,-0.029831273,9.080023,-0.089210674,9.470576,-0.06748765,6.972571,-0.04662178,8.8518305,0.0012347953,6.949817,0.012802656,9.214261,-0.16741139,8.092088,-0.12200605,8.137463,-0.18916343,7.6017985,-0.18778971,6.9513383,-0.22737582,8.189356,-0.1934031,7.261538,-0.062189326,7.1270432,-0.26697376,6.1230755,-0.15246958
2026-03-04 19:20:15.102375,102.98,44663.68,8.17191219329834,6.8744087,0.24467787,6.7719264,0.2591822,6.346848,0.15162933,8.587677,0.32730532,7.423804,0.27367395,6.6396265,0.20821252,6.540849,0.16927913,6.8825293,0.25463387,7.7682347,0.074154265,6.699818,0.1742909,8.636147,0.17528975,8.790749,0.088782035,7.883244,0.1568458,8.32799,0.020765549,8.539077,0.093343385,10.126803,0.013120157,7.4333344,0.051196054,6.8698187,0.14081725,7.2783647,0.12545088,9.033231,0.04794143,8.549551,0.03939603,9.471796,0.016791029,7.2679734,0.07459349,7.5699077,0.0029296875,10.360806,-0.037158534,9.268207,0.011624191,8.895306,-0.0048124483,10.740528,-0.031433135,9.111928,-0.04880959,10.107234,-0.06597733,8.0100975,-0.004967695,9.212901,-0.042917073,9.619979,-0.07192954,8.47005,-0.044669587,8.950852,-0.04513992,8.698828,-0.023414196,9.537046,-0.07141194,7.9106183,-0.032428324,9.4083395,-0.13244057,9.6976595,-0.112364985,7.0895004,-0.09547594,8.621014,-0.058079276,7.3662944,-0.06619866,9.038011,-0.19739115,7.722783,-0.1281959,8.119996,-0.16567867,7.1709957,-0.15598284,7.21466,-0.22674946,7.9849157,-0.18476005,7.154468,-0.08191671,6.97695,-0.27855885,6.1657166,-0.16376355
2026-03-04 19:20:15.115847,102.98,44663.68,8.148430824279785,6.7284474,0.21209155,6.7066493,0.24226537,6.280838,0.13138488,8.753195,0.30307922,7.366075,0.27041763,6.5673594,0.20545243,6.602099,0.18070553,6.7524033,0.26697165,7.7033033,0.09304126,6.57803,0.13001573,8.556224,0.10391462,8.806159,0.0060813343,7.830985,0.068428494,8.287758,-0.047165796,8.459234,0.073557936,10.074092,-0.003307797,7.5721407,0.023643978,6.8298407,0.13509241,7.196525,0.11429422,8.923421,0.05255632,8.500295,0.052883357,9.404741,0.016643343,7.320951,0.025295088,7.558166,-0.08422673,10.390488,-0.109567165,9.305322,-0.06700056,8.786201,-0.01572711,10.650288,-0.048475783,9.133671,-0.060852733,10.129891,-0.083320946,8.0997925,-0.038954224,9.125033,-0.026652956,9.670724,-0.07514097,8.485677,-0.045026757,8.945896,-0.03325931,8.754717,-0.06972572,9.496652,-0.14501868,7.9519386,-0.1393708,9.363266,-0.21931642,9.566755,-0.146931,7.0393305,-0.09714441,8.68295,-0.06368485,7.252587,-0.086694166,8.959113,-0.22999659,7.703635,-0.10567143,8.119203,-0.1870418,7.219199,-0.15052743,7.1516757,-0.21777953,7.8830633,-0.23369189,7.171492,-0.17828842,7.1478677,-0.36761394,6.173047,-0.23522447
2026-03-04 19:20:15.122830,102.98,44663.68,8.178345680236816,6.898249,0.2536178,6.595103,0.27237412,6.536398,0.16456687,8.470511,0.3510222,7.532754,0.30078912,6.540217,0.21733992,6.5656233,0.16787055,6.91485,0.25632104,7.7765923,0.09844895,6.8684855,0.15371138,8.618207,0.17149471,8.907812,0.072987095,7.709131,0.1398113,8.343898,0.028059537,8.300197,0.09938938,10.32098,0.028231364,7.352736,0.07471746,6.8673635,0.16932936,7.184112,0.12998284,9.006376,0.054861527,8.680341,0.054967787,9.422023,0.024616357,7.470742,0.051648993,7.537411,-0.011224256,10.427907,-0.045730527,9.154799,-0.007271883,8.646037,0.011417577,10.957259,-0.018614428,9.086913,-0.02268259,10.146468,-0.05183695,7.897457,-0.012280103,9.265266,-0.030838313,9.597876,-0.069811866,8.550454,-0.038990546,8.790599,-0.036902998,8.89017,-0.0349201,9.534938,-0.078105584,7.9007754,-0.07162342,9.321569,-0.13884419,9.48776,-0.10966978,7.296166,-0.08620032,8.585035,-0.03818827,7.2706895,-0.058712434,8.870453,-0.20395806,7.844161,-0.11988503,8.089824,-0.17621803,7.416171,-0.16725805,7.1775217,-0.2314633,8.210466,-0.19150002,7.140378,-0.11125822,7.1655183,-0.29510278,6.131188,-0.19464622
2026-03-04 19:20:15.127570,102.98,44663.68,8.15476131439209,7.0523458,0.25663128,6.205789,0.27995962,6.750664,0.17774971,8.182413,0.34737027,7.94848,0.29631898,6.365207,0.20341282,6.4238987,0.19800591,6.907141,0.2878031,7.601243,0.11470366,7.277344,0.15258718,8.702052,0.15552194,8.758495,0.044943333,7.6957245,0.09592972,8.25136,0.0023268077,7.811081,0.10340972,10.615435,0.02262084,7.0535445,0.06874131,7.2156568,0.16224076,6.7867713,0.11159241,8.956381,0.066573784,8.556859,0.07420024,9.373337,0.037766587,7.903012,0.039585967,7.7080355,-0.03778219,10.302628,-0.079392225,8.9073105,-0.047679503,8.237419,0.018324256,11.421528,-0.03244826,8.638613,-0.026945574,10.44481,-0.051176112,7.456473,-0.0316604,9.290278,-0.015984602,9.501164,-0.06410532,8.650599,-0.026881736,8.69402,-0.03676346,9.425757,-0.04937389,9.541815,-0.10474747,7.9841228,-0.124792725,9.292096,-0.17333329,8.949228,-0.109651156,7.6235857,-0.0992985,8.319287,-0.053637113,7.5676703,-0.053373765,8.468838,-0.22578423,7.828398,-0.11456033,8.051607,-0.16705467,7.4434953,-0.17186879,7.011421,-0.22696415,8.479254,-0.22055632,7.2869053,-0.15016298,7.1246552,-0.34342274,6.002336,-0.22239959
2026-03-04 19:20:15.137302,102.98,44663.68,8.132108688354492,6.4445496,0.23982984,7.0315614,0.28764492,5.8588047,0.17896686,8.903726,0.35973644,6.9460864,0.32356602,7.218202,0.22939938,6.570459,0.16565262,6.943732,0.24119101,7.52083,0.07291284,6.432763,0.14444411,8.62354,0.19776298,8.920853,0.08643049,7.826072,0.14905998,8.017976,0.027042199,8.695183,0.11889844,9.800093,0.036637884,7.934709,0.08977373,6.294812,0.21231897,7.9219275,0.124799296,9.002582,0.050827716,8.712762,0.045653854,9.245935,-0.0034767946,6.999307,0.054739002,7.4644938,0.024914484,10.29482,-0.026019061,9.33409,0.003430414,8.777714,0.030036889,10.229015,-0.01617854,9.672214,-0.006560548,9.4323435,-0.018372132,8.622936,-0.0106880125,9.368759,-0.03076274,9.47108,-0.08402386,8.551328,-0.043643713,8.616206,-0.059797727,8.318237,-0.03132519,9.57114,-0.043550763,8.019121,-0.053371634,9.113036,-0.12813784,9.720343,-0.082189195,6.6181984,-0.07952447,9.063831,-0.026298495,6.756866,0.0070614656,9.494568,-0.19251655,7.918971,-0.121503174,8.13571,-0.18895046,7.431235,-0.17637366,7.034758,-0.25211325,7.59856,-0.1988172,7.0908804,-0.076578766,7.0951447,-0.2966847,6.187595,-0.15819153
2026-03-04 19:20:15.142271,102.98,44663.68,8.147350311279297,6.9181356,0.23470375,6.3485146,0.26934743,6.5571656,0.17033833,8.389824,0.34671593,7.7406354,0.2912714,6.4352875,0.20173173,6.364179,0.19833335,6.86898,0.28849256,7.5778666,0.12801784,7.1224365,0.12911153,8.749422,0.12671782,8.833141,0.0145004345,7.70527,0.062429305,8.145116,-0.03245908,7.9125104,0.08752638,10.476947,0.023139503,7.3032928,0.06333405,7.0729556,0.15620744,6.9283175,0.098970406,8.876399,0.07128592,8.557855,0.06997594,9.340637,0.039220463,7.7914863,0.0149331065,7.652565,-0.071060546,10.373543,-0.10708359,8.952094,-0.07239434,8.290743,6.865063e-05,11.262898,-0.038504265,8.907152,-0.029276635,10.2451725,-0.05989258,7.607202,-0.049148675,9.258937,-0.018367866,9.4122305,-0.06915407,8.772405,-0.031356506,8.698266,-0.028494505,9.317989,-0.06643426,9.564664,-0.12931783,7.986209,-0.15761556,9.256778,-0.20886326,9.090065,-0.13897255,7.489463,-0.09786519,8.574598,-0.06016439,7.4104886,-0.06478428,8.60122,-0.23990037,7.7907305,-0.12068551,7.869519,-0.17882048,7.504346,-0.17022453,6.908407,-0.2227892,8.450445,-0.24535245,7.2731605,-0.17595957,7.140994,-0.3873196,5.9835744,-0.24807659
2026-03-04 19:20:15.147258,102.98,44663.68,8.150306701660156,6.5206275,0.21834044,7.096213,0.28682667,5.7468653,0.17222255,8.900278,0.34311372,6.9552236,0.3356607,7.123134,0.23358591,6.6046033,0.21794277,6.906571,0.27790397,7.599502,0.11709706,6.3300533,0.12979576,8.580578,0.12585256,8.9555645,0.027529515,7.8912225,0.08880922,8.164934,-0.02625348,8.6446085,0.10961859,9.828225,0.02997596,8.044206,0.057332188,6.2378144,0.17577165,7.7507825,0.10282312,9.014081,0.0817061,8.723508,0.046260886,9.274447,0.018477073,6.8874984,0.010380216,7.5108275,-0.06908952,10.300505,-0.094259374,9.326064,-0.064851284,8.683518,-0.0018537368,10.366138,-0.03470946,9.813321,-0.040703,9.392628,-0.080692135,8.54167,-0.047220085,9.440818,-0.030351501,9.477384,-0.093444064,8.705088,-0.059350867,8.606834,-0.053701643,8.369685,-0.06962684,9.675211,-0.138225,8.027066,-0.14331736,9.223383,-0.21642849,9.707007,-0.13217625,6.741665,-0.1233027,9.203009,-0.085455455,6.607989,-0.07775936,9.384865,-0.24100384,8.018973,-0.1376943,8.000761,-0.21203142,7.45968,-0.20248094,6.9029956,-0.26746377,7.6779203,-0.27547163,7.192532,-0.20791243,7.3141723,-0.40861076,6.363681,-0.26432437
2026-03-04 19:20:15.157266,102.98,44663.68,8.17293643951416,6.9325023,0.24322899,6.405781,0.27882022,6.669998,0.16799217,8.351008,0.35571775,7.6979613,0.30102047,6.537967,0.21284918,6.6305737,0.19904125,6.875962,0.28206587,7.6625266,0.10413262,6.969786,0.13681838,8.706463,0.1546091,8.788045,0.048222244,7.825972,0.11076816,8.258105,-0.0039925682,8.115223,0.10318212,10.44666,0.02391301,7.1837997,0.0705344,7.052825,0.16815351,7.0886283,0.11354946,9.139325,0.06530363,8.532613,0.06022034,9.343629,0.030616337,7.581561,0.03179508,7.7151995,-0.032211225,10.312129,-0.075861245,9.181861,-0.03334812,8.403011,0.008624191,11.052331,-0.03150003,8.908023,-0.028642295,10.205849,-0.058381885,7.777557,-0.026408637,9.46849,-0.022374611,9.649703,-0.07110304,8.48867,-0.046361316,8.670529,-0.04410031,9.002298,-0.05728157,9.607726,-0.10043369,8.001068,-0.110614665,9.324219,-0.17215313,9.2386265,-0.122189894,7.37431,-0.1000321,8.432112,-0.046029054,7.354674,-0.05450676,8.825429,-0.22283746,7.9787188,-0.115390174,8.100406,-0.17199174,7.3123064,-0.17761792,7.0183954,-0.22969024,8.2843895,-0.22117631,7.285273,-0.1410501,7.085573,-0.3478078,6.136902,-0.20916818
2026-03-04 19:20:15.162356,102.98,44663.68,8.178288459777832,6.807481,0.27365413,6.8546796,0.27936593,6.37589,0.16618553,8.591063,0.35618073,7.329462,0.31342137,6.7157564,0.23435465,6.662593,0.17996201,6.9451966,0.24726567,7.7100315,0.08817309,6.7465744,0.1703918,8.579128,0.1948256,8.881671,0.097430825,7.7174783,0.17088509,8.265974,0.03561448,8.47656,0.10546591,10.181104,0.0331693,7.4473677,0.08480407,6.730836,0.17417826,7.395687,0.13741788,9.165207,0.05558932,8.64847,0.04204469,9.419933,0.019830063,7.330278,0.059911076,7.5732365,0.011931232,10.451721,-0.025207898,9.224401,0.018171387,8.74383,0.0073973285,10.701716,-0.017861476,9.206699,-0.024389742,10.024304,-0.050516535,8.143195,-0.0020898103,9.302027,-0.03793852,9.612251,-0.079804555,8.450901,-0.054481983,8.789429,-0.04464259,8.692278,-0.030519703,9.6170635,-0.061612193,7.9595037,-0.044547915,9.190608,-0.12639739,9.65136,-0.11294899,7.043174,-0.09366505,8.6602335,-0.043655574,7.1981997,-0.04968709,9.0932045,-0.1938005,7.8938913,-0.13247429,8.143795,-0.1926524,7.360998,-0.17787404,7.193482,-0.24043708,8.041132,-0.19814534,7.0769253,-0.09931176,7.0800285,-0.28278545,6.17296,-0.16716592
2026-03-04 19:20:15.177243,102.98,44663.68,8.110520362854004,6.3408294,0.19133286,7.341058,0.25300068,5.4863358,0.12378834,9.179402,0.31233576,6.5825987,0.27401313,7.207563,0.20587821,6.515807,0.18452995,7.025978,0.24127907,7.5364785,0.08398102,6.019273,0.14185251,8.5325985,0.126525,8.903103,0.03187338,7.8005967,0.10706157,8.111583,-0.034178324,9.156409,0.08405135,9.414269,0.0115009835,8.21188,0.049637187,6.035779,0.14692992,7.8934627,0.107528664,8.90514,0.05311363,8.708235,0.038024303,9.214346,0.009978548,6.625647,0.044204455,7.395541,-0.049896542,10.389638,-0.06924146,9.406905,-0.02193776,9.13415,-0.0102394065,9.984182,-0.029091073,10.017447,-0.036705635,9.200571,-0.08151185,8.726692,-0.031584598,9.185091,-0.045376353,9.440102,-0.0803628,8.667548,-0.040329784,8.737069,-0.02985248,8.135674,-0.036988504,9.607484,-0.10378635,7.8903027,-0.09058292,9.18668,-0.17233731,10.16887,-0.119191036,6.3484025,-0.09573105,9.344097,-0.05135451,6.3921432,-0.07488937,9.508665,-0.20199348,7.7161384,-0.11655937,8.036323,-0.18468758,7.369294,-0.16196597,6.9906497,-0.21935089,7.331826,-0.22742537,7.1136475,-0.13322373,7.260962,-0.32833084,6.3126335,-0.19376273
2026-03-04 19:20:15.182375,102.98,44663.68,8.177858352661133,6.7372484,0.25126702,6.9426246,0.26771754,6.3607264,0.15923171,8.652998,0.3373789,7.287424,0.29860184,6.7706423,0.21723418,6.5635924,0.1674526,6.963708,0.25804034,7.80836,0.0776576,6.5952573,0.16455132,8.50443,0.17605846,8.871563,0.08498836,7.820505,0.15682906,8.396276,0.031779733,8.659423,0.10788202,10.183079,0.01778341,7.5371733,0.055143703,6.65444,0.15835369,7.386022,0.121709816,9.011872,0.05369355,8.701942,0.04791769,9.489954,0.012249742,7.121839,0.06646733,7.4486117,-0.0015819267,10.38634,-0.037719864,9.22328,0.0019802104,8.902382,0.00791317,10.763486,-0.023393624,9.299553,-0.040528093,9.92733,-0.06783662,8.09703,-0.010199302,9.228587,-0.034150764,9.609926,-0.074019864,8.451331,-0.04860557,8.864097,-0.049656436,8.5660515,-0.027749708,9.493065,-0.075064756,7.8597016,-0.05208702,9.40506,-0.1330527,9.811576,-0.10736049,7.099471,-0.10417416,8.742762,-0.06076834,7.0667157,-0.068833545,9.053877,-0.19955695,7.823205,-0.12589772,8.197654,-0.18087271,7.327829,-0.16896239,7.235685,-0.23238951,7.841149,-0.19084401,7.080944,-0.11268249,7.178993,-0.29426005,6.2418656,-0.17585541
2026-03-04 19:20:15.187286,102.98,44663.68,8.144068717956543,6.921881,0.30026963,6.339603,0.30812708,6.7719846,0.22521658,8.050374,0.39110625,7.882941,0.32105318,6.5843463,0.23077208,6.4906025,0.21448033,7.025476,0.27023453,7.432329,0.1419993,7.3326106,0.15498492,8.821815,0.18969834,8.723851,0.07927143,7.6351724,0.13627353,8.003988,0.029517036,7.7175717,0.11646009,10.69458,0.074191175,7.0177503,0.108604014,7.0679393,0.18462496,7.0210543,0.13203083,9.147459,0.076198585,8.612918,0.06665797,9.278089,0.048535593,7.888511,0.03834308,7.7140093,-0.0003338366,10.206978,-0.048076898,8.806484,-0.01783648,7.9892087,0.019332137,11.469193,-0.00034135542,8.795167,-0.0035133073,10.213285,-0.03495988,7.4355254,-0.015952837,9.578635,-0.007850807,9.402231,-0.07884264,8.755278,-0.036045894,8.421409,-0.044650186,9.386142,-0.033698294,9.735047,-0.07618034,7.9113445,-0.08047285,9.147677,-0.13814384,8.847264,-0.10103492,7.7003684,-0.086409345,8.347165,-0.0436592,7.3319755,-0.035936255,8.519314,-0.20033517,8.052965,-0.13804235,7.9696827,-0.18448175,7.598335,-0.19359799,6.877639,-0.2322748,8.56342,-0.21725549,7.297227,-0.12852286,7.059881,-0.32911897,5.8958893,-0.19896735
2026-03-04 19:20:15.192237,102.98,44663.68,8.141363143920898,6.674069,0.18687041,6.870109,0.24119084,6.239491,0.11092328,8.765303,0.28609148,7.186749,0.25934738,6.813857,0.19768886,6.650387,0.17755403,6.877275,0.27025998,7.657159,0.06749117,6.391556,0.15525886,8.690295,0.11510123,8.759318,0.027936528,7.818629,0.10124802,8.218402,-0.0417082,8.537142,0.08370447,10.0048685,-0.021214448,7.689143,0.002382547,6.6261625,0.11616447,7.4868827,0.10370166,9.10461,0.05254197,8.587589,0.059382025,9.246967,-0.012644741,7.038472,0.051655952,7.666413,-0.06276575,10.298402,-0.08644792,9.302623,-0.039561305,8.74645,-0.010768837,10.516067,-0.07515617,9.378457,-0.08016924,9.904244,-0.09526835,8.381612,-0.03808982,9.278677,-0.034623053,9.635028,-0.077792555,8.421104,-0.04031894,8.732454,-0.060919255,8.424385,-0.045049395,9.683314,-0.12706748,7.8914905,-0.106940314,9.2412,-0.20079476,9.656082,-0.1362223,6.9098053,-0.15158199,8.819597,-0.101749174,7.041812,-0.10673356,9.276695,-0.21968785,7.782232,-0.11733712,8.150143,-0.1845085,7.1020846,-0.1509,7.050399,-0.2487584,7.695178,-0.21491776,7.173234,-0.1643408,7.0119133,-0.36242855,6.245323,-0.20698659
2026-03-04 19:20:15.197416,102.98,44663.68,8.142904281616211,6.855073,0.18781208,6.572364,0.24281682,6.3889832,0.12434488,8.591888,0.29601327,7.5682926,0.242618,6.6328297,0.1898258,6.497327,0.20686288,6.8908696,0.27759084,7.469215,0.114080414,6.732554,0.11287269,8.747065,0.062295977,8.686893,-0.020475395,7.7861147,0.03165538,8.25637,-0.084759995,8.102769,0.06460817,10.311954,-0.0094807455,7.5751247,0.017194564,6.9321856,0.09840634,7.1138334,0.10295916,8.959436,0.06594425,8.558822,0.06639312,9.209342,0.02836719,7.368842,0.01180375,7.7292104,-0.1222892,10.265836,-0.14843118,9.148057,-0.0977967,8.37973,-0.021242473,11.024891,-0.072244585,9.294246,-0.07023714,10.100141,-0.10454847,7.871713,-0.057815492,9.450587,-0.02148838,9.485032,-0.0738335,8.619999,-0.027934808,8.514144,-0.034132052,8.925094,-0.08214153,9.623724,-0.18237056,7.983424,-0.17548484,9.330396,-0.24273086,9.318153,-0.16311465,7.2601223,-0.13708866,8.823794,-0.10241918,7.1877484,-0.11086364,8.773723,-0.24031767,7.9183416,-0.1098918,7.9339194,-0.16424075,7.321784,-0.15664713,6.7658978,-0.2197907,8.027164,-0.25844485,7.3156505,-0.22661084,7.1207876,-0.42610222,6.1095996,-0.26289538
2026-03-04 19:20:15.217360,102.98,44663.68,8.184523582458496,6.98624,0.3097533,6.588922,0.2842587,6.749078,0.19796343,8.324687,0.37360293,7.621376,0.30177268,6.435737,0.23903304,6.5263643,0.15933602,6.887632,0.25788054,7.820355,0.08412915,7.0671434,0.18560149,8.536641,0.23421766,8.915426,0.13124453,7.711908,0.19367915,8.410783,0.08324613,8.248972,0.1179702,10.495145,0.045107838,7.1174474,0.08642966,6.9980307,0.1795275,7.1007695,0.1468291,9.0248,0.05142721,8.626496,0.061786927,9.537631,0.020690383,7.597306,0.0801517,7.5265946,0.04357469,10.468478,0.00078388373,9.076084,0.033438414,8.593677,0.02880422,11.150942,-0.0091206785,8.878489,-0.015691843,10.259955,-0.03934299,7.6589355,0.012698712,9.218913,-0.030359413,9.574072,-0.07404268,8.411071,-0.04329231,8.873244,-0.05099423,8.953678,-0.01282508,9.534291,-0.03157557,7.966277,-0.013677524,9.463802,-0.0929974,9.43403,-0.08415545,7.411317,-0.07721239,8.374418,-0.044644006,7.4316354,-0.038858257,8.714126,-0.19262646,7.8079743,-0.13097715,8.166152,-0.17827828,7.4235163,-0.17321159,7.302781,-0.23761766,8.318724,-0.17086905,7.057709,-0.08050533,7.102902,-0.2501254,6.11252,-0.14637427
2026-03-04 19:20:15.237321,102.98,44663.68,8.16381549835205,7.044424,0.35781607,6.354146,0.3326819,6.9926376,0.25927517,7.9934,0.42730162,7.899784,0.3403861,6.326447,0.27835098,6.614643,0.17947942,7.0400496,0.2252902,7.6310406,0.107513174,7.454761,0.18921533,8.664169,0.28044307,8.871607,0.16729471,7.650273,0.22322084,8.107189,0.12964231,7.8286643,0.13811845,10.733564,0.10071347,6.7816153,0.1494091,7.178633,0.21738102,6.991244,0.18593118,9.18602,0.06352074,8.713046,0.03953048,9.3127985,0.032436386,7.952624,0.07378895,7.6652555,0.103617676,10.366631,0.040530123,8.923067,0.054366216,8.232354,0.031100385,11.25253,0.0416879,8.516386,0.026251638,10.427568,-0.0001914424,7.439829,0.06205781,9.423335,-0.017171998,9.597112,-0.087203234,8.586375,-0.058699317,8.542322,-0.044553567,9.270347,0.0031946306,9.676383,0.0049273167,7.8920517,0.017798886,9.109434,-0.04523809,8.973221,-0.063486576,7.62137,-0.020521285,8.086205,0.017539004,7.538551,0.0036797253,8.567308,-0.13640808,7.960353,-0.12715632,8.142349,-0.18763621,7.6309147,-0.19593187,7.1047187,-0.22627734,8.6839285,-0.16537432,7.1289625,-0.019671332,6.9357443,-0.19949575,5.9010024,-0.14782108
2026-03-04 19:20:15.242524,102.98,44663.68,8.176596641540527,6.8391347,0.24669471,6.755445,0.27314875,6.4819856,0.16174401,8.538944,0.34279275,7.397988,0.2968594,6.6842685,0.22258826,6.5158014,0.20601314,7.009124,0.26658893,7.6028996,0.08789355,6.8091793,0.16027643,8.711418,0.16228513,8.915295,0.062350374,7.7336392,0.11758276,8.2031975,-0.008302263,8.287678,0.09594796,10.314516,0.023317076,7.5495996,0.05809913,6.7459116,0.151708,7.3152637,0.11955458,9.08176,0.066977344,8.665966,0.050942253,9.336151,0.008303425,7.3940716,0.05237384,7.6812196,-0.033475034,10.392689,-0.05875573,9.15553,-0.030286841,8.506471,-0.0021824297,10.8722925,-0.032487698,9.217367,-0.040536616,10.020953,-0.07459803,8.06578,-0.021641348,9.335252,-0.026180321,9.506018,-0.08128683,8.621379,-0.05220349,8.617951,-0.058994368,8.862773,-0.041056596,9.713146,-0.0981382,7.964391,-0.09149138,9.1869,-0.18373872,9.404707,-0.120239034,7.1928935,-0.116252646,8.791179,-0.06990187,7.1498256,-0.08183846,9.028851,-0.21617642,7.9294124,-0.12866482,8.005515,-0.19669425,7.414054,-0.17783478,7.0228295,-0.2470029,8.201247,-0.22272302,7.160923,-0.15317626,7.0745897,-0.3458475,6.1977024,-0.22185546
2026-03-04 19:20:15.247418,102.98,44663.68,8.14183235168457,6.6549816,0.21359068,7.037332,0.2659594,5.957089,0.13997358,8.807619,0.33081448,6.9925756,0.30219418,6.8075027,0.22030163,6.529778,0.18724929,6.8880153,0.2611997,7.7717757,0.07393309,6.39133,0.13252363,8.430591,0.14792593,8.945055,0.046086885,7.7509165,0.096487895,8.319962,-0.009562757,8.8648405,0.099759355,9.747825,0.010656292,7.87495,0.064648,6.4807587,0.17479914,7.530507,0.11897018,8.95475,0.06304491,8.637145,0.047234107,9.365241,0.0104425615,7.073766,0.030719412,7.376063,-0.03829791,10.485614,-0.056643646,9.339055,-0.04032473,9.071587,0.0019274913,10.320873,-0.034225926,9.604095,-0.026966784,9.684091,-0.05481472,8.360965,-0.013973194,9.093763,-0.029643744,9.57392,-0.08505814,8.50474,-0.051677857,8.865234,-0.040002722,8.381477,-0.04439875,9.516638,-0.09771896,7.970082,-0.0967472,9.206763,-0.17424475,9.938943,-0.10904507,6.605719,-0.076833226,9.105038,-0.036993116,6.8674526,-0.060309436,9.160432,-0.20386441,7.700833,-0.11050086,8.077696,-0.20133187,7.318841,-0.17002803,7.2461214,-0.22012326,7.735792,-0.2203604,6.961896,-0.1256901,7.161741,-0.32449308,6.325577,-0.21626586
2026-03-04 19:20:15.257508,102.98,44663.68,8.188863754272461,7.0105414,0.33165744,6.259884,0.30835372,7.1368175,0.23200443,7.898766,0.40881065,8.089185,0.33665583,6.488125,0.24386317,6.6418977,0.18909858,7.0637097,0.25745708,7.5305142,0.10924703,7.6348324,0.18908504,8.851394,0.24945188,8.905791,0.13103676,7.502585,0.1946109,7.943118,0.08054865,7.5908136,0.13142073,11.035146,0.07758426,6.7632356,0.12076053,7.2795525,0.19872482,6.9780383,0.15297909,9.239308,0.06989531,8.743086,0.06490714,9.26033,0.039027426,8.147137,0.07932177,7.8975744,0.0652564,10.364609,-0.0003927039,8.702147,0.028508114,7.830606,0.03123712,11.579912,0.011854841,8.529852,0.0063827424,10.531135,-0.015296499,7.465897,0.018814499,9.572467,-0.01157891,9.394056,-0.07960738,8.714879,-0.039453033,8.297162,-0.06617893,9.514327,-0.0054357094,9.857496,-0.015310093,7.9015613,-0.027029205,8.974191,-0.08821064,8.680777,-0.08680568,7.9842176,-0.0728264,8.1706705,-0.023850018,7.616198,-0.020436987,8.585828,-0.17605326,8.113999,-0.13670498,8.018871,-0.17637128,7.708038,-0.19119671,6.8909407,-0.24376553,8.909512,-0.17170876,7.273802,-0.07142792,6.983537,-0.26773727,5.762809,-0.16803914
2026-03-04 19:20:15.262392,102.98,44663.68,8.144216537475586,6.5708385,0.22402544,7.12949,0.2389748,5.976999,0.13458595,8.870054,0.31373113,6.9675727,0.27356902,7.06947,0.20387636,6.621802,0.17925477,7.080736,0.23885563,7.54518,0.07090797,6.3035583,0.15587962,8.557386,0.1501733,8.947162,0.07774867,7.7127748,0.16160274,8.113163,-0.012334163,8.807667,0.07989722,9.825541,0.00491746,7.912935,0.045134325,6.293547,0.11779081,7.8007183,0.108517304,9.065017,0.05559406,8.816802,0.037716504,9.214261,-0.00052768085,6.8975635,0.06378405,7.4355073,-0.038860746,10.408707,-0.04359607,9.241342,0.01326023,8.893414,-0.029386964,10.303474,-0.041309644,9.761485,-0.051434413,9.505821,-0.10002417,8.506406,-0.032552645,9.365294,-0.059618503,9.358447,-0.0751426,8.598984,-0.037443843,8.617174,-0.060211115,8.357967,-0.036190234,9.633899,-0.08741688,7.914067,-0.04494022,9.107329,-0.15905449,9.895798,-0.13554,6.715386,-0.12678008,9.189626,-0.07046032,6.6304574,-0.1159002,9.38219,-0.208617,7.917502,-0.14674485,7.9612265,-0.19243588,7.428037,-0.16669331,7.0561433,-0.24091652,7.766698,-0.20396478,7.118833,-0.11476529,7.08557,-0.32468572,6.2422247,-0.20928615
2026-03-04 19:20:15.267526,102.98,44663.68,8.146230697631836,6.7359033,0.24169484,6.6982875,0.2835342,6.34932,0.17000625,8.40006,0.35085055,7.4671235,0.3081021,6.7841396,0.21709271,6.585804,0.19862686,6.943742,0.27677464,7.532883,0.10887887,6.8739505,0.1445453,8.677216,0.15820713,8.76803,0.04354089,7.780416,0.11171351,8.1099415,-0.00066141057,8.251134,0.11719788,10.342457,0.028088603,7.3868556,0.06475114,6.7040067,0.17287263,7.2602925,0.1135212,9.130873,0.06960453,8.592284,0.06418288,9.316744,0.025507659,7.447008,0.029215993,7.6694717,-0.036929995,10.280633,-0.08083301,9.084791,-0.03779304,8.340112,0.019040171,10.966223,-0.028025722,9.143597,-0.030430006,9.849393,-0.0525152,7.9144063,-0.028320149,9.443359,-0.011689571,9.497569,-0.07841306,8.64165,-0.03224322,8.541736,-0.048786014,8.921523,-0.05674685,9.656143,-0.104321465,7.9625835,-0.116096586,9.199017,-0.16731386,9.281199,-0.11308121,7.209587,-0.105547436,8.652942,-0.064571425,7.06761,-0.03794295,8.853866,-0.21415155,8.051118,-0.12271268,8.018059,-0.18281625,7.489273,-0.18156232,6.9344344,-0.23162144,8.102908,-0.2421723,7.293507,-0.15720868,7.2038684,-0.3713814,6.1949263,-0.21034776
2026-03-04 19:20:15.282551,102.98,44663.68,8.142801284790039,6.6688094,0.20437922,6.8772497,0.25408012,6.1211805,0.12962918,8.665314,0.3141538,7.234252,0.2933442,6.835979,0.20735158,6.672072,0.1742205,6.848687,0.25850743,7.7391257,0.08660866,6.4923754,0.12533377,8.464783,0.12404991,8.8525,0.023318002,7.8773837,0.086661,8.299503,-0.014303144,8.618914,0.101810515,9.978416,0.0008320649,7.639773,0.038768124,6.513642,0.15226671,7.4317684,0.10326831,9.098957,0.055826038,8.60147,0.05884563,9.364359,0.009200178,7.101517,0.028008303,7.5017567,-0.058808833,10.349211,-0.0872446,9.327426,-0.051520895,8.794543,0.007268704,10.551731,-0.042228915,9.337237,-0.05289516,9.74498,-0.06750901,8.187084,-0.034334168,9.313479,-0.024229718,9.6406145,-0.07861704,8.464264,-0.041893348,8.782219,-0.044852413,8.509317,-0.05908904,9.522964,-0.124240674,8.01204,-0.12395272,9.28161,-0.1822032,9.673126,-0.12263748,6.812559,-0.10625351,8.807918,-0.06293279,6.913929,-0.06305635,9.069559,-0.21923271,7.9276595,-0.110582136,8.159896,-0.19049954,7.234377,-0.16074285,7.1633234,-0.2299105,7.7305503,-0.2278987,7.0875754,-0.15988132,7.218182,-0.36385936,6.308512,-0.21186003
2026-03-04 19:20:15.292505,102.98,44663.68,8.13642692565918,6.726954,0.21798389,6.695093,0.25027096,6.486055,0.13527948,8.429405,0.31384453,7.499662,0.2665613,6.753008,0.20266354,6.608657,0.18006915,6.908301,0.25476062,7.5344563,0.08651356,6.820636,0.15126215,8.68287,0.15075897,8.749361,0.060084715,7.745453,0.14036922,8.117991,-0.014068246,8.308709,0.08250968,10.311136,0.005478252,7.353187,0.036657527,6.8446374,0.13219891,7.3221655,0.11271018,9.121628,0.05194613,8.561129,0.05549833,9.233994,0.011045042,7.4122577,0.05801396,7.669269,-0.019428296,10.299279,-0.054397754,9.074187,0.0005044121,8.509015,-0.012216022,10.877951,-0.0489243,9.098307,-0.049730074,10.039002,-0.073093444,7.9829187,-0.030360516,9.35548,-0.04731993,9.385085,-0.061275672,8.400571,-0.03492995,8.654225,-0.05306362,8.863044,-0.041771453,9.616577,-0.087615006,7.9035077,-0.06348747,9.182478,-0.16390139,9.335968,-0.12669556,7.2076573,-0.11576142,8.62108,-0.077699296,7.262235,-0.07482858,8.958287,-0.21417233,7.9143763,-0.12888573,8.021316,-0.16265048,7.2737617,-0.17384394,7.0619383,-0.24148615,8.007708,-0.19451258,7.2296367,-0.13057473,6.9903035,-0.31820938,6.0722685,-0.18733977
2026-03-04 19:20:15.297619,102.98,44663.68,8.134358406066895,6.5284014,0.18647778,6.930899,0.2705997,5.9906616,0.15116987,8.750248,0.32518876,7.1749945,0.2918323,7.083261,0.19487828,6.6031656,0.20845212,6.9790444,0.27128232,7.4516425,0.09704974,6.4261727,0.11830177,8.726328,0.11307905,8.735543,0.022505162,7.8714595,0.08839532,8.129522,-0.045821097,8.578044,0.09493747,9.9329405,0.013274585,7.8179865,0.047642156,6.426692,0.15234385,7.5828795,0.09213765,9.081571,0.07091334,8.670262,0.053096585,9.169086,0.015123735,6.999024,0.016394185,7.6082077,-0.06341889,10.176989,-0.09785718,9.278895,-0.05264469,8.677043,-0.0038563977,10.519569,-0.041747052,9.599278,-0.044687063,9.577242,-0.07375159,8.292275,-0.04917223,9.531364,-0.030369509,9.485309,-0.076388635,8.637651,-0.044171,8.58331,-0.04825517,8.491221,-0.062797636,9.673649,-0.12578402,7.8987427,-0.12472512,9.199881,-0.20508222,9.666997,-0.12572934,6.8560944,-0.11395028,9.038869,-0.074044116,6.7580485,-0.0818531,9.198798,-0.23228931,8.04783,-0.12633194,7.933256,-0.17919451,7.330078,-0.17708188,6.895121,-0.250572,7.714404,-0.24355038,7.2516336,-0.16177478,7.2130895,-0.38843527,6.211908,-0.22426316
2026-03-04 19:20:15.308456,102.98,44663.68,8.162519454956055,6.9992576,0.30685925,6.279655,0.30902988,6.8647428,0.21808097,8.183544,0.39401627,7.827876,0.32501104,6.450728,0.23729832,6.4774127,0.19290867,6.9139285,0.28565547,7.6194005,0.109334186,7.3631663,0.17647974,8.739614,0.21354654,8.887511,0.09390129,7.6652207,0.14833277,8.145571,0.051617723,7.824145,0.13847485,10.701699,0.054473184,6.9773273,0.1067827,7.1774025,0.2002097,6.9376125,0.13555531,8.981233,0.070280954,8.568159,0.079195656,9.417985,0.029051429,7.907524,0.056953732,7.6501327,0.018146796,10.395359,-0.036028005,8.923975,-0.015703192,8.152471,0.04333805,11.397162,-0.010070067,8.730443,0.0010717915,10.329115,-0.02804801,7.4467025,-0.014437944,9.293318,-0.016116349,9.431098,-0.07958188,8.717286,-0.030148786,8.617631,-0.05151404,9.381973,-0.026582781,9.662325,-0.060017917,7.9816008,-0.085291326,9.263101,-0.13121879,8.959875,-0.083905794,7.663345,-0.08903954,8.340429,-0.035540126,7.467876,-0.024819283,8.497198,-0.20900801,7.851138,-0.124818206,7.975439,-0.19186571,7.5591426,-0.18592581,7.0145874,-0.24800621,8.647657,-0.2091784,7.1510334,-0.11830999,7.141474,-0.30752888,5.8974032,-0.20378186
2026-03-04 19:20:15.318353,102.98,44663.68,8.083250045776367,6.8902974,0.2132177,6.4430485,0.24813226,6.5976286,0.14462148,8.166161,0.31066722,7.577412,0.2773923,6.5727468,0.18351392,6.542681,0.20171477,6.8563714,0.24578382,7.587001,0.11274418,6.9094663,0.115114205,8.655356,0.11747591,8.6829815,0.02193263,7.652173,0.07032543,8.1092825,-0.036578465,7.971855,0.09321292,10.437719,0.01273329,7.163917,0.044954825,6.906394,0.14774606,7.1279235,0.09350332,9.057746,0.07192342,8.547228,0.06856627,9.176004,0.024314318,7.674399,0.027190827,7.694533,-0.06959414,10.22849,-0.09944087,8.878707,-0.07368585,8.187519,0.0058084233,11.0331545,-0.042913225,8.783021,-0.052495565,10.104247,-0.061433535,7.707886,-0.036988817,9.290399,-0.016291592,9.416656,-0.062946625,8.54192,-0.03230051,8.461682,-0.04372206,9.096215,-0.06646033,9.546634,-0.123816855,7.9795246,-0.14673296,9.007331,-0.19817592,8.928994,-0.13186328,7.298433,-0.10607872,8.410363,-0.06706382,7.1459374,-0.06982235,8.722382,-0.21655604,7.8811526,-0.10918425,8.002404,-0.16859019,7.3966823,-0.1709043,6.891777,-0.22312984,8.129772,-0.21875626,7.219701,-0.18826279,6.9807386,-0.3705723,6.0569816,-0.23754899
2026-03-04 19:20:15.322825,102.98,44663.68,8.150136947631836,6.6779313,0.2122301,6.880625,0.25727975,6.145049,0.12790078,8.717574,0.32057616,7.2090154,0.29571155,6.8720136,0.20243509,6.622489,0.18687613,6.8609304,0.27182257,7.7403536,0.07799154,6.525729,0.14067447,8.538372,0.14363001,8.955298,0.03955951,7.780355,0.10960145,8.199718,-0.015458822,8.620301,0.10075344,10.001345,-0.0003433213,7.682201,0.044775173,6.504867,0.16080226,7.4892282,0.091916926,9.039598,0.057377107,8.621401,0.057818644,9.3683405,0.0023397875,7.192617,0.04234666,7.496535,-0.047475006,10.43895,-0.074413225,9.2691345,-0.03874564,8.766883,0.003156126,10.513256,-0.043744963,9.379781,-0.049593274,9.744707,-0.068874985,8.27147,-0.04120909,9.257511,-0.028637603,9.568967,-0.07081858,8.524477,-0.042020857,8.79877,-0.05238684,8.579069,-0.051763944,9.578967,-0.10793873,8.005072,-0.10851005,9.183384,-0.18865916,9.650807,-0.1168804,6.805568,-0.114873156,8.86669,-0.06339386,6.9232526,-0.06275847,9.189754,-0.22964306,7.825904,-0.12259136,8.072722,-0.18882926,7.325692,-0.16772395,7.1363635,-0.24117322,7.8731484,-0.22040416,7.0646825,-0.15128377,7.1769505,-0.34766296,6.273322,-0.21056396
2026-03-04 19:20:15.327806,102.98,44663.68,8.137763977050781,6.5199943,0.18203938,7.076155,0.25309414,5.884252,0.12329217,8.9258795,0.3080961,7.017972,0.28423727,6.875376,0.19788899,6.6774764,0.18372707,6.8794374,0.2566045,7.7222524,0.08084243,6.268702,0.13099656,8.561985,0.12216423,8.917971,0.036230125,7.7905283,0.10185678,8.135614,-0.035106126,8.812259,0.08128157,9.777613,-0.004134475,7.9304466,0.036184415,6.395167,0.13393608,7.7070074,0.09744051,9.06512,0.061474103,8.625765,0.047033314,9.27384,-0.0032785493,6.9489927,0.035333823,7.5249825,-0.055238206,10.398646,-0.076768644,9.306233,-0.03706975,8.946421,-0.013868779,10.224503,-0.053983502,9.5975685,-0.056793988,9.661698,-0.0849309,8.532275,-0.030867103,9.232518,-0.03913055,9.595598,-0.078192644,8.487177,-0.052083295,8.795321,-0.048906803,8.318384,-0.049697306,9.604012,-0.113528766,7.9109364,-0.1105573,9.120459,-0.19398177,9.849151,-0.13387977,6.671162,-0.115177125,9.035226,-0.0690435,6.8544455,-0.07410432,9.447897,-0.21793473,7.8072195,-0.1193341,8.072172,-0.18445814,7.2426696,-0.16072538,7.122308,-0.24489017,7.585936,-0.22490145,7.107416,-0.14688411,7.1026607,-0.3575425,6.2189016,-0.20641713
2026-03-04 19:20:15.332778,102.98,44663.68,8.140328407287598,6.8512664,0.20391752,6.66229,0.23699835,6.45181,0.12615451,8.487193,0.298104,7.509425,0.27530557,6.4533687,0.19919789,6.6576204,0.19560759,6.72359,0.26786512,7.816128,0.11605799,6.673691,0.11346634,8.487577,0.08241644,8.787976,-0.011165681,7.7232327,0.05841935,8.368594,-0.05226045,8.334244,0.071045615,10.28319,-0.003925868,7.4208517,0.027934104,6.8848214,0.12388464,7.040372,0.090252146,8.991588,0.06292251,8.546632,0.053974435,9.415083,0.029268542,7.3690324,0.024006275,7.5091543,-0.10763323,10.399255,-0.12256376,9.159807,-0.07798673,8.655227,-0.017599525,10.900282,-0.05779058,9.043834,-0.06458807,10.175604,-0.08457672,7.873549,-0.052117098,9.143764,-0.034407947,9.566342,-0.07322829,8.386694,-0.04190339,8.96004,-0.030990189,8.802614,-0.08297741,9.47326,-0.16210757,7.904239,-0.17086981,9.32722,-0.23277448,9.433754,-0.15568784,7.233603,-0.120223604,8.668374,-0.076102875,7.2835336,-0.10282656,8.855925,-0.25041395,7.754706,-0.118683934,8.114483,-0.18283764,7.167742,-0.16007872,7.233052,-0.22043818,7.974738,-0.2451505,7.1013055,-0.2120894,7.0992494,-0.40221417,6.156119,-0.261491
2026-03-04 19:20:15.347782,102.98,44663.68,8.148362159729004,6.8828754,0.27805477,6.365,0.2833442,6.886046,0.21502721,8.008436,0.36956665,7.8354683,0.32493407,6.428218,0.21910499,6.648135,0.20538202,6.984592,0.27033138,7.548869,0.10994258,7.3285646,0.15582418,8.67517,0.19389777,8.834295,0.07684054,7.6066523,0.122204244,7.9674134,0.021562096,7.748845,0.104235224,10.82242,0.05660312,6.94625,0.0854813,7.037282,0.177135,7.0008907,0.11692026,9.176105,0.08199947,8.64155,0.06501823,9.276649,0.032822516,7.9007063,0.044023655,7.7594085,-0.0097279735,10.331864,-0.055506747,8.819586,-0.030054081,7.944324,0.008559558,11.375885,-0.011886035,8.6813965,-0.023352044,10.360711,-0.043269496,7.5572395,-0.022694226,9.498911,-0.013665929,9.434699,-0.07876115,8.606286,-0.038509745,8.35927,-0.05702967,9.341925,-0.041336607,9.716803,-0.080327176,7.961883,-0.10297018,9.061023,-0.15573305,8.811651,-0.12461492,7.73935,-0.09730152,8.2695675,-0.050461628,7.4449863,-0.049648795,8.615836,-0.21221776,8.099036,-0.12829323,8.029879,-0.18722835,7.584555,-0.18652004,6.888699,-0.2368855,8.593061,-0.2131672,7.2941895,-0.14234538,7.114385,-0.34770915,5.8680096,-0.21767582
2026-03-04 19:20:15.352770,102.98,44663.68,8.146775245666504,6.6372643,0.2563871,6.9588256,0.288188,6.1364174,0.17860438,8.707997,0.35952353,7.044907,0.32010475,6.8546686,0.2343942,6.6117115,0.18240264,6.9792595,0.23372768,7.7089643,0.093960814,6.601237,0.15623209,8.519426,0.17567776,8.948653,0.06338605,7.758433,0.13263017,8.075954,0.021910511,8.579985,0.10823449,9.980632,0.047216326,7.746185,0.08940905,6.3889832,0.18539874,7.609646,0.12976043,9.05084,0.0653027,8.727866,0.032528143,9.334755,0.02221777,7.1951723,0.044609543,7.5161405,-0.003281384,10.407719,-0.04304198,9.241468,-0.010714759,8.719064,0.0073900665,10.464605,-0.005952015,9.465183,-0.019610712,9.668003,-0.046964437,8.367281,0.005530113,9.289445,-0.02334964,9.539081,-0.08726746,8.598871,-0.0645939,8.625651,-0.043623682,8.53299,-0.03495772,9.652989,-0.0764849,7.958043,-0.07662184,9.12918,-0.14283992,9.650115,-0.10698444,6.8986764,-0.07411378,8.848584,-0.028919253,6.8109617,-0.033428226,9.293161,-0.1855922,7.8357882,-0.1158208,8.138126,-0.20068789,7.460039,-0.18213718,7.0435348,-0.22757724,7.8729577,-0.20954518,7.124251,-0.11940898,7.087949,-0.31055832,6.2346826,-0.19606455
2026-03-04 19:20:15.357698,102.98,44663.68,8.160788536071777,6.750514,0.2606581,6.8337917,0.28505573,6.356337,0.18127403,8.531092,0.35893664,7.2501774,0.3233266,6.7900853,0.22739325,6.5922904,0.16860285,7.055151,0.23739465,7.6905856,0.098020494,6.795195,0.1451791,8.625583,0.1851525,8.918368,0.073913746,7.718872,0.14799507,8.194828,0.033067923,8.47203,0.106640644,10.205816,0.046296164,7.496042,0.08989963,6.568678,0.18635082,7.44336,0.13248023,9.090807,0.053528056,8.76628,0.045130953,9.336695,0.027414303,7.3412757,0.04878476,7.600788,0.00084798044,10.3629,-0.03626885,9.178652,0.0014155848,8.611503,0.008782402,10.656383,-0.0045289085,9.239347,-0.009508133,9.854452,-0.03888906,8.160109,-0.0029332058,9.311122,-0.03145353,9.533748,-0.08130343,8.594127,-0.044444025,8.587224,-0.039773133,8.711675,-0.029007556,9.669962,-0.059984915,7.897218,-0.059561122,9.208494,-0.12510289,9.512156,-0.10513559,7.073123,-0.06899534,8.698619,-0.01857047,6.9360833,-0.037576463,9.093283,-0.18657227,7.930041,-0.11618779,8.207099,-0.18502542,7.4819617,-0.16688703,7.058855,-0.2283778,8.009377,-0.19298793,7.17272,-0.08716911,7.072621,-0.28817123,6.1134934,-0.17260948
2026-03-04 19:20:15.362712,102.98,44663.68,8.188712120056152,6.6659336,0.29637817,7.035363,0.28594705,6.397244,0.18492307,8.55005,0.35571292,7.1012096,0.32187572,6.9839582,0.24479552,6.7614727,0.15996796,7.050186,0.24387012,7.814314,0.07058273,6.6398787,0.18626018,8.540375,0.22399613,8.974087,0.12373013,7.7598042,0.20885226,8.17459,0.077316314,8.640949,0.12579532,10.188375,0.040702764,7.509724,0.07061951,6.3889923,0.17963925,7.644588,0.13778311,9.231168,0.047730822,8.815669,0.048947327,9.405694,0.0005384491,7.1852922,0.08329245,7.5872254,0.039152082,10.467866,-0.00043471862,9.225929,0.041425135,8.690113,0.019238189,10.611204,-0.00649403,9.337581,-0.029412555,9.753206,-0.05036115,8.3831625,0.0008639627,9.313022,-0.043019637,9.582227,-0.0803216,8.4905205,-0.05669126,8.626666,-0.06504481,8.494305,-0.013855567,9.684699,-0.036230575,7.8601203,-0.015718026,9.197456,-0.09434635,9.701822,-0.09319371,7.022824,-0.09918214,8.7615,-0.046354394,6.8689265,-0.056301,9.282706,-0.18474132,7.9846616,-0.14043197,8.29433,-0.20144103,7.507477,-0.18273145,7.2364726,-0.25281638,7.9382443,-0.1830545,7.0994267,-0.079285145,7.107222,-0.2704456,6.2432175,-0.14306417
2026-03-04 19:20:15.372852,102.98,44663.68,8.146175384521484,6.9026685,0.21810447,6.4453616,0.2372992,6.759268,0.13501567,8.298857,0.3024989,7.6821947,0.26793966,6.4481125,0.18859771,6.6942806,0.19452718,6.7856827,0.26557812,7.674017,0.10530089,6.971696,0.1226555,8.63096,0.11047756,8.803044,0.014462181,7.6661954,0.081283726,8.197253,-0.032916676,8.061539,0.075124875,10.489591,0.0059091556,7.1996727,0.030578425,7.048261,0.11846974,7.000892,0.09862165,9.110056,0.061949924,8.534636,0.06601561,9.288908,0.025975648,7.665341,0.026518319,7.735374,-0.08100489,10.376653,-0.1014827,9.020761,-0.063673414,8.331103,-0.012447075,11.074657,-0.044355996,8.785111,-0.06003332,10.393051,-0.07735168,7.755128,-0.03377411,9.275827,-0.020258479,9.6133175,-0.06369446,8.47543,-0.030735863,8.665159,-0.03985653,9.062142,-0.0632236,9.593877,-0.13536003,7.870955,-0.1353874,9.203158,-0.20507072,9.174773,-0.13816455,7.4690824,-0.10140742,8.462389,-0.067179225,7.4159727,-0.08630412,8.73601,-0.22596031,7.8172016,-0.10819166,8.043813,-0.16932753,7.291676,-0.15990432,7.0930915,-0.2215625,8.314496,-0.21553776,7.15475,-0.17803158,7.0390897,-0.35630998,5.9986196,-0.24733248
2026-03-04 19:20:15.377926,102.98,44663.68,8.14467716217041,7.0100513,0.24400114,6.464398,0.2602544,6.7653646,0.16726288,8.1187935,0.3324142,7.857761,0.30103645,6.3481936,0.20239966,6.459432,0.20391352,6.9010963,0.27564484,7.708936,0.120695464,7.1041784,0.13376562,8.663539,0.1296919,8.821587,0.013669779,7.6811647,0.071661524,8.28453,-0.015257082,7.926996,0.09953338,10.683052,0.026503189,7.0937314,0.051176872,7.0787807,0.14520667,6.79735,0.10167698,8.948167,0.07634438,8.599504,0.07217789,9.444416,0.03461695,7.7684298,0.036427494,7.6325164,-0.06705032,10.352264,-0.1016747,8.856875,-0.07352315,8.188607,0.004009538,11.423297,-0.035863295,8.788035,-0.046999525,10.368029,-0.0663067,7.402351,-0.038888264,9.250663,-0.00996072,9.487182,-0.07481385,8.622562,-0.031814426,8.6467285,-0.041157328,9.258776,-0.052960254,9.552354,-0.12889348,7.8648367,-0.15210588,9.301823,-0.19303194,9.0364,-0.1304845,7.6419353,-0.1059617,8.363457,-0.070390284,7.4197087,-0.069708,8.5047455,-0.23055704,7.811152,-0.11869962,7.9951525,-0.17744698,7.4175215,-0.16925736,7.0624113,-0.21605489,8.4493065,-0.22614999,7.117781,-0.18206346,7.1491957,-0.37385,6.028091,-0.2574656
2026-03-04 19:20:15.382917,102.98,44663.68,8.164534568786621,6.804383,0.27551293,6.7184796,0.26130262,6.663638,0.17319553,8.328398,0.34602588,7.4883156,0.29326543,6.6453414,0.21645468,6.621056,0.16143519,6.965862,0.23292445,7.7800546,0.08521399,6.97555,0.16371416,8.535596,0.19682822,8.932073,0.091877595,7.6877155,0.15829468,8.253291,0.048998676,8.267546,0.109118424,10.456696,0.04129078,7.1979775,0.0825293,6.762052,0.15696214,7.261791,0.1303165,9.068225,0.05651604,8.693989,0.053417057,9.393222,0.023034489,7.5458703,0.065395206,7.5876102,0.016868647,10.410091,-0.02254128,9.076579,0.0030982618,8.471895,0.021123929,11.007474,-0.0016332098,9.029704,-0.01775944,10.070584,-0.039780054,7.846879,0.00051923573,9.267256,-0.027169826,9.541551,-0.06993076,8.547335,-0.037911914,8.573361,-0.042018842,8.914001,-0.020037238,9.603788,-0.04818177,7.9069233,-0.04381588,9.208083,-0.10842715,9.353651,-0.090659365,7.3062973,-0.073728375,8.499746,-0.025622474,7.1753016,-0.033318702,8.849973,-0.17285167,7.8502903,-0.119516194,8.160023,-0.17317194,7.507966,-0.17034009,7.163594,-0.21723387,8.2539625,-0.17336726,7.0710006,-0.09416192,7.19109,-0.2646168,6.0626183,-0.16419978
2026-03-04 19:20:15.388026,102.98,44663.68,8.169445037841797,6.73696,0.281745,6.599931,0.28721163,6.6283736,0.20468391,8.351162,0.3712907,7.5890374,0.32321614,6.8146443,0.2356495,6.6772237,0.20110145,7.01419,0.25215006,7.553604,0.113477565,7.1328163,0.16577804,8.721916,0.18406887,8.992577,0.07826307,7.575479,0.13534501,7.8746014,0.029361172,7.958395,0.11111137,10.590811,0.057274327,7.341596,0.08888908,6.788122,0.17977278,7.3249564,0.1359074,9.292321,0.07478531,8.664917,0.05199263,9.236938,0.030827051,7.6610665,0.04595719,7.782898,-0.012250266,10.388241,-0.045685314,8.907559,-0.02385112,8.078034,0.010471431,11.110153,-0.0070269783,9.076547,-0.02278725,10.033302,-0.04958882,7.961925,-0.01057378,9.464894,-0.014013533,9.407725,-0.08941933,8.666629,-0.04503595,8.322443,-0.05311115,9.081194,-0.03843947,9.909413,-0.076506205,7.939331,-0.0873198,8.917721,-0.14776325,9.079416,-0.11853607,7.5151443,-0.093161434,8.575045,-0.05111082,7.128575,-0.046358086,8.973957,-0.19020106,8.03904,-0.124934316,7.9993095,-0.19548069,7.6405745,-0.19029637,6.8849516,-0.24261801,8.42323,-0.21443856,7.2702355,-0.14328296,7.138927,-0.3227193,5.973121,-0.21650285
2026-03-04 19:20:15.397911,102.98,44663.68,8.166654586791992,6.934819,0.24127103,6.4859924,0.23956232,6.863123,0.1359769,8.160781,0.3064932,7.744629,0.2775002,6.52319,0.1930948,6.688811,0.18158546,6.9322762,0.2621744,7.6216087,0.091747254,7.1367993,0.14682072,8.722235,0.14299121,8.853592,0.04889261,7.640734,0.11483612,8.151769,-0.008387052,7.951515,0.083784856,10.618728,0.012667869,7.0765924,0.028088732,7.086109,0.12678963,7.0393834,0.10914331,9.216118,0.058396935,8.611858,0.070956625,9.255422,0.018248595,7.7692037,0.051443085,7.791086,-0.04205192,10.41188,-0.06989531,8.9449215,-0.035673987,8.196726,-0.0043251337,11.189776,-0.04235177,8.732459,-0.061218616,10.406743,-0.07196503,7.728676,-0.025970746,9.386837,-0.028128162,9.584456,-0.065076694,8.502541,-0.023462828,8.537985,-0.04817916,9.162523,-0.038650583,9.715861,-0.10021918,7.896465,-0.09478143,9.146761,-0.17189747,9.049397,-0.123075746,7.561856,-0.11097466,8.353735,-0.0708948,7.442309,-0.078321315,8.751578,-0.21228917,7.9105167,-0.12044027,8.100767,-0.16261457,7.3620877,-0.1591015,7.051801,-0.23664775,8.508696,-0.1952072,7.1649585,-0.14801751,7.0602674,-0.32738316,5.927051,-0.21824789
2026-03-04 19:20:15.403015,102.98,44663.68,8.120984077453613,6.4565,0.15523608,7.2819405,0.24091409,5.6241827,0.09843677,8.986893,0.28405458,6.7083325,0.30745262,7.0344443,0.19269606,6.7001166,0.17718369,6.8287516,0.2568144,7.7918677,0.07844187,5.961617,0.09196327,8.306256,0.079285175,8.964392,-0.017347815,7.894375,0.05099178,8.36188,-0.060432173,9.100793,0.077664636,9.529955,-0.016467711,8.109007,0.019059742,6.0750203,0.14021188,7.763522,0.08202483,8.997474,0.063467085,8.68505,0.048146278,9.3531685,0.0020301137,6.688895,0.012055753,7.3657393,-0.09992528,10.379459,-0.115564846,9.481099,-0.07550983,9.133464,-0.020607714,9.995038,-0.060227405,9.766669,-0.06485109,9.383083,-0.08417044,8.66629,-0.05681996,9.064979,-0.035238292,9.616819,-0.07869403,8.447564,-0.048237063,8.849646,-0.03948988,8.0351925,-0.08072793,9.41945,-0.15756987,7.9620843,-0.16653644,9.249778,-0.22158526,10.086913,-0.147973,6.411157,-0.11974952,9.191553,-0.06867442,6.5283465,-0.09002178,9.480179,-0.23583235,7.7743597,-0.103106655,8.199019,-0.19319129,7.188463,-0.16233058,7.2400618,-0.23940873,7.3239894,-0.24975123,7.005408,-0.19874185,7.336832,-0.39611918,6.504125,-0.2462597
2026-03-04 19:20:15.408148,102.98,44663.68,8.133858680725098,6.49083,0.16983536,7.1394596,0.2371793,5.8665557,0.11402176,8.824633,0.29604325,6.89767,0.3005475,7.1028914,0.19339764,6.7563,0.18462148,6.867195,0.25563115,7.707628,0.07060947,6.191827,0.110659435,8.461571,0.107544705,8.897808,-0.00039258823,7.925585,0.06932896,8.245112,-0.044266228,8.878076,0.09563817,9.760021,-0.0039271642,7.931722,0.030583575,6.143651,0.14578375,7.757035,0.08911692,9.18778,0.06577526,8.692982,0.05089325,9.287795,-0.0021924884,6.829152,0.016719157,7.4838285,-0.07927806,10.276229,-0.10293283,9.426681,-0.06749387,8.817273,-0.0040330277,10.171116,-0.04428398,9.701855,-0.057431143,9.39081,-0.0778458,8.591669,-0.042234614,9.351626,-0.021952214,9.635379,-0.08098495,8.45429,-0.04354667,8.64827,-0.043927576,8.129893,-0.06209589,9.634469,-0.13542882,7.982552,-0.13796906,9.239064,-0.2036777,9.826661,-0.12403363,6.5634265,-0.11049066,9.038087,-0.061189827,6.537646,-0.074048884,9.417956,-0.21513647,7.988857,-0.1003261,8.18428,-0.18343107,7.2752666,-0.16424473,7.0919857,-0.23987375,7.4674764,-0.23247579,7.102943,-0.17491099,7.2668943,-0.37757358,6.420885,-0.23067002
2026-03-04 19:20:15.413062,102.98,44663.68,8.175575256347656,6.7902627,0.2745176,6.6630173,0.27838975,6.598427,0.17943051,8.42541,0.35678786,7.4401946,0.31519294,6.681508,0.21990126,6.6614556,0.17158793,6.9830933,0.25238815,7.746666,0.08590967,6.9580336,0.16504474,8.649632,0.19415197,8.895653,0.08910661,7.620203,0.15928839,8.164251,0.043899298,8.244627,0.11252703,10.441537,0.04355585,7.2957044,0.0769585,6.788456,0.18291982,7.317097,0.13218068,9.131579,0.059074137,8.70984,0.058953665,9.367187,0.026525902,7.5688906,0.06130523,7.6726246,0.00928078,10.425941,-0.02880891,9.097428,0.0003173272,8.399991,0.018779717,10.99132,-0.010593588,9.086609,-0.021373061,10.041881,-0.04481282,7.9578457,-0.0026398369,9.342482,-0.023937257,9.5032425,-0.07614301,8.599517,-0.04038732,8.554224,-0.044581745,8.934184,-0.027176289,9.677915,-0.05990887,7.9441695,-0.054682985,9.126345,-0.1192008,9.314344,-0.103530094,7.3010287,-0.085863784,8.580876,-0.038189493,7.157918,-0.052052457,8.948692,-0.1870156,7.921646,-0.12482781,8.124924,-0.17972651,7.5016465,-0.17061312,7.077442,-0.22870064,8.298222,-0.19385977,7.1523905,-0.104242876,7.156853,-0.28928688,6.0955043,-0.18087679
2026-03-04 19:20:15.423219,102.98,44663.68,8.155508041381836,6.556461,0.25022233,6.950905,0.27492413,6.2184105,0.171634,8.558172,0.3464157,7.16665,0.30568704,7.064167,0.22364405,6.6653767,0.1891257,7.102974,0.25672704,7.576045,0.08205673,6.7159376,0.17294957,8.600776,0.1822226,9.014689,0.095134564,7.685715,0.16880405,7.959749,0.03334443,8.416552,0.11241192,10.150428,0.030514844,7.6475115,0.060112163,6.4038095,0.14852421,7.6362433,0.118782274,9.21931,0.0667478,8.747349,0.05582082,9.218721,0.011884831,7.22523,0.06464727,7.6354146,-0.011187531,10.400809,-0.032302145,9.054324,0.0060736276,8.420058,0.0045980294,10.622481,-0.02038292,9.5004425,-0.040651433,9.627793,-0.077875786,8.276151,-0.018073134,9.4674635,-0.038761463,9.400979,-0.08192106,8.658371,-0.042208213,8.397483,-0.06710485,8.700041,-0.021042874,9.784612,-0.068557665,7.9216104,-0.051819988,8.9633665,-0.13183117,9.473767,-0.10984517,7.0654826,-0.12066204,8.912885,-0.06718871,6.752065,-0.08184836,9.210084,-0.19466798,8.071601,-0.13989115,8.042192,-0.18904535,7.556183,-0.18801978,7.0008774,-0.2551068,8.047568,-0.20738408,7.2233367,-0.13496216,7.216734,-0.30783814,6.1810684,-0.20649841
2026-03-04 19:20:15.443315,102.98,44663.68,8.150898933410645,6.7112274,0.2356208,6.8039966,0.2601317,6.4050794,0.14243247,8.553079,0.3241376,7.33038,0.29507244,6.716847,0.19908966,6.627103,0.1832586,6.9566298,0.24486388,7.746314,0.09513193,6.7589445,0.12826739,8.514658,0.14044537,8.968474,0.04055834,7.661168,0.10060127,8.183964,-0.008062451,8.37877,0.09405117,10.261747,0.02064338,7.503378,0.05543039,6.639058,0.15442795,7.324616,0.10633985,9.059377,0.065421514,8.697479,0.055237435,9.322935,0.019838389,7.3785534,0.03798515,7.5883737,-0.045298982,10.419729,-0.07087005,9.081261,-0.04516207,8.540353,0.0013607728,10.791438,-0.026148789,9.209796,-0.042042434,9.908551,-0.06124086,8.050692,-0.022265662,9.222963,-0.020060318,9.490418,-0.074140914,8.573723,-0.03695944,8.646004,-0.041149132,8.764693,-0.0478489,9.591746,-0.1033368,7.8953433,-0.11128615,9.214079,-0.16999851,9.467153,-0.1193487,7.1646204,-0.0935767,8.708932,-0.04990796,6.950716,-0.062440705,9.020654,-0.20369875,7.814531,-0.10596943,8.131767,-0.181835,7.512873,-0.1628012,7.1161194,-0.21972707,8.039218,-0.19951332,7.057779,-0.14965788,7.2046914,-0.33610052,6.164766,-0.22397164
2026-03-04 19:20:15.453286,102.98,44663.68,8.170159339904785,6.591605,0.24707845,7.060137,0.26325804,6.3322625,0.15270905,8.600825,0.3331721,7.087689,0.31320047,7.0119963,0.2106741,6.7808294,0.16840552,7.0702443,0.2426593,7.766281,0.07279915,6.587064,0.1494045,8.504262,0.17626551,8.9424305,0.06938378,7.7691545,0.15323721,8.160053,0.023733651,8.648081,0.10845925,10.178215,0.023844449,7.577031,0.056918178,6.3516626,0.1645589,7.6389194,0.1163027,9.238754,0.057868477,8.78393,0.051778115,9.352037,0.0022703484,7.172749,0.05651707,7.5889244,-0.011675682,10.367593,-0.0368354,9.211078,-0.003508854,8.609095,0.01200642,10.579789,-0.017743759,9.331913,-0.040479116,9.722272,-0.057903305,8.413315,-0.01948884,9.302414,-0.03339287,9.574014,-0.07797091,8.443298,-0.04773117,8.556965,-0.05961202,8.43677,-0.035228092,9.687,-0.06503247,7.93569,-0.06438462,9.16649,-0.1363007,9.653946,-0.10826593,7.006727,-0.10063908,8.761402,-0.04431089,6.8156343,-0.05416273,9.258347,-0.1967647,8.009091,-0.11740856,8.28203,-0.18961899,7.394803,-0.17053045,7.1420445,-0.24829318,7.8959303,-0.19478367,7.1184425,-0.1196427,7.1427193,-0.3001122,6.23431,-0.17994599
2026-03-04 19:20:15.458446,102.98,44663.68,8.152491569519043,6.924333,0.25817752,6.579809,0.25840467,6.8487325,0.16971803,8.110551,0.34964427,7.7093034,0.29227906,6.4432626,0.21390897,6.5275345,0.18089347,7.0380526,0.25617355,7.747471,0.11137855,7.1962214,0.14966513,8.552637,0.16360256,8.915714,0.06299309,7.565273,0.12491784,8.194111,0.02186931,8.033215,0.09821838,10.67385,0.041073907,7.138806,0.074011624,6.8605976,0.14876004,6.969359,0.11475108,9.048911,0.06711547,8.781316,0.06544055,9.333241,0.032912966,7.7080045,0.047798935,7.5912247,-0.024748178,10.346013,-0.057972614,8.81858,-0.028069912,8.236382,-0.0022118064,11.28718,-0.012468817,8.847426,-0.026472704,10.177464,-0.058784705,7.592352,-0.017332641,9.285006,-0.02525035,9.417916,-0.06968308,8.690628,-0.028062541,8.503049,-0.052920416,9.20589,-0.04073362,9.614156,-0.08617678,7.8112745,-0.0904263,9.155401,-0.15497549,9.1039915,-0.119242586,7.592884,-0.092331566,8.437603,-0.046668656,7.210157,-0.06907826,8.624686,-0.21193074,7.941086,-0.12579022,7.9969296,-0.17891085,7.5895796,-0.17466603,7.1420407,-0.23501706,8.463165,-0.19735423,7.099571,-0.15029532,7.17619,-0.3241502,6.071445,-0.21972542
2026-03-04 19:20:15.473459,102.98,44663.68,8.134937286376953,6.884213,0.21412782,6.469345,0.24372713,6.6698165,0.14292286,8.160198,0.31783968,7.7342396,0.28846028,6.6201143,0.19031663,6.7160244,0.19680832,6.9403143,0.26360846,7.5844393,0.11328,7.0482297,0.12606116,8.697141,0.11764748,8.802926,0.020216357,7.677398,0.089164525,8.071709,-0.036037255,7.928416,0.085583255,10.572797,0.013928807,7.1465473,0.037932828,6.9374924,0.1279889,7.0831633,0.08977441,9.211545,0.0655205,8.583471,0.06778165,9.211382,0.03335315,7.7120743,0.029623529,7.762855,-0.07237499,10.308494,-0.10058125,8.867578,-0.062971525,8.091438,-0.008489484,11.172733,-0.042787142,8.845293,-0.054963853,10.217729,-0.08064452,7.6882706,-0.048488773,9.462785,-0.029544557,9.449232,-0.065268025,8.536376,-0.028649252,8.448866,-0.046157345,9.146205,-0.060941003,9.7475605,-0.13148546,7.935928,-0.13952294,9.045124,-0.20866373,8.91639,-0.14597836,7.5015826,-0.11549653,8.450305,-0.075647525,7.2758417,-0.084475525,8.711051,-0.2254732,8.046709,-0.12868206,7.997412,-0.17194594,7.3306093,-0.16985244,6.9134717,-0.23383799,8.374357,-0.23178048,7.222612,-0.2022911,7.0901694,-0.36982167,5.996773,-0.24142432
2026-03-04 19:20:15.483453,102.98,44663.68,8.137523651123047,6.7713733,0.23935342,6.740538,0.242998,6.4727173,0.15451007,8.440205,0.32749137,7.3609366,0.2839776,6.7723794,0.21281926,6.652696,0.1613458,6.94881,0.22938357,7.7069297,0.088858925,6.8103914,0.14743783,8.5595,0.15570894,8.8721485,0.050995477,7.6730685,0.12160799,8.191129,0.014225385,8.315935,0.0896762,10.25798,0.02830859,7.375794,0.059540316,6.6459107,0.14616653,7.345297,0.11746838,9.147901,0.05946561,8.672068,0.050460182,9.307924,0.020192778,7.4120054,0.04892794,7.6009116,-0.02281135,10.33347,-0.054298498,9.077458,-0.025083099,8.437009,0.0036611129,10.808188,-0.018231278,9.187515,-0.03870021,9.859273,-0.054465316,7.988508,-0.011790926,9.288122,-0.02333594,9.441941,-0.07552839,8.526659,-0.040710516,8.539256,-0.041503318,8.8014145,-0.030009985,9.612335,-0.08622207,7.9267335,-0.07680923,9.098338,-0.14214289,9.399648,-0.11040151,7.1798925,-0.07973193,8.646949,-0.047777276,6.9814367,-0.053966414,8.9631605,-0.18570292,7.910588,-0.10785364,8.070871,-0.17765209,7.4653416,-0.16981527,7.0719676,-0.21879794,8.104993,-0.19326702,7.083992,-0.14136253,7.133989,-0.30117106,6.15761,-0.2030984
2026-03-04 19:20:15.488408,102.98,44663.68,8.132052421569824,6.861545,0.18416996,6.6983657,0.2329237,6.465766,0.118286245,8.336519,0.29732713,7.486974,0.28262064,6.454717,0.17955746,6.646751,0.19400278,6.8592696,0.26817963,7.8122115,0.115382984,6.714262,0.10376075,8.534643,0.075039476,8.767309,-0.023018338,7.7765555,0.042303253,8.350942,-0.06812324,8.322856,0.07331227,10.341391,-0.0058258744,7.353989,0.025269285,6.7757535,0.12210895,7.043949,0.07915126,9.066855,0.06896318,8.602667,0.068130955,9.381635,0.03054348,7.440038,0.0063047386,7.6048474,-0.1102842,10.3317175,-0.13801433,9.147295,-0.09255809,8.4975,-0.016548112,10.935358,-0.057918265,8.912643,-0.061859284,10.094412,-0.080943406,7.8999314,-0.057416905,9.17289,-0.02328478,9.6301985,-0.06702779,8.4188795,-0.03256023,8.752163,-0.034557503,8.816439,-0.09018077,9.50373,-0.1680357,7.8804154,-0.18675597,9.2793865,-0.24048562,9.334993,-0.15908347,7.258181,-0.117867246,8.563019,-0.06990629,7.1148586,-0.09907287,8.840743,-0.24759898,7.798971,-0.10334606,8.113672,-0.18479457,7.242225,-0.15702593,7.1469927,-0.22639085,8.02133,-0.24954888,7.0753913,-0.2205172,7.186402,-0.41406623,6.197197,-0.25581908
2026-03-04 19:20:15.498650,102.98,44663.68,8.128177642822266,6.435953,0.19125174,7.296639,0.2502209,5.740584,0.1211701,8.867976,0.30710497,6.6981287,0.30988243,7.0793324,0.21003819,6.8211575,0.16652799,6.929235,0.25083333,7.8423643,0.06998765,6.018086,0.12994695,8.313717,0.1318242,8.958712,0.03589836,7.912284,0.11387774,8.288476,-0.011818948,9.095024,0.103397585,9.605498,-0.0045609367,8.001911,0.03131862,6.03203,0.15618485,7.8834023,0.09614095,9.182822,0.056262035,8.702782,0.046601504,9.298945,-0.007485599,6.714178,0.04429983,7.388091,-0.047679085,10.367802,-0.0666011,9.459044,-0.028992891,9.047363,-0.0063999635,10.03175,-0.040394127,9.714337,-0.056995895,9.292154,-0.077260315,8.724967,-0.037391145,9.237822,-0.040404975,9.580961,-0.08098878,8.37194,-0.052848212,8.75852,-0.056635648,7.997589,-0.054323148,9.505434,-0.10870688,7.94559,-0.10461717,9.152787,-0.17926367,10.035279,-0.1255741,6.4988647,-0.12075393,9.124248,-0.065492734,6.4760923,-0.08152705,9.567914,-0.21671191,7.839223,-0.11503068,8.241997,-0.20808601,7.2606864,-0.16845046,7.2356567,-0.24391676,7.4179306,-0.22640443,7.0184355,-0.15595207,7.1876016,-0.3481675,6.4659505,-0.20989183
2026-03-04 19:20:15.503917,102.98,44663.68,8.157800674438477,6.974167,0.3351199,6.396294,0.29164785,7.340641,0.23736882,7.730004,0.3950847,7.899583,0.31866178,6.340744,0.2500624,6.6605206,0.18800268,7.065909,0.24456027,7.7214704,0.12658359,7.6136336,0.18180032,8.6720495,0.23543009,8.894742,0.12518337,7.431607,0.18339851,8.024237,0.089153275,7.6943135,0.11832531,11.094623,0.0893853,6.634101,0.11661892,7.1056175,0.17924173,6.839492,0.15077986,9.25789,0.076556385,8.740557,0.062458254,9.332381,0.050122652,8.0982065,0.06707819,7.7639856,0.03944822,10.3616905,-0.008276529,8.592949,0.0096587045,7.842908,0.012930213,11.617361,0.019785652,8.4372635,0.00019995932,10.449046,-0.029389087,7.338073,0.014214583,9.363508,-0.01718452,9.345744,-0.07444486,8.572382,-0.04329104,8.323127,-0.06010943,9.521317,-0.02303544,9.781556,-0.03114904,7.810844,-0.047586467,8.980731,-0.09711072,8.715836,-0.10417674,8.001484,-0.0693028,8.086193,-0.022631802,7.4676003,-0.044531528,8.4269085,-0.18390177,8.021209,-0.13860907,8.038692,-0.18697618,7.8001447,-0.20424218,7.012942,-0.23630413,8.885992,-0.18225019,7.142794,-0.116351835,7.1045585,-0.27596223,5.836022,-0.19739908
2026-03-04 19:20:15.509490,102.98,44663.68,8.175475120544434,6.6048975,0.35582802,7.2379346,0.3081858,6.475059,0.21975976,8.432166,0.38077644,6.901764,0.33214426,7.0714407,0.2692409,6.8257213,0.1337706,7.149711,0.20254003,7.990524,0.06807016,6.6854744,0.21296173,8.33188,0.29434747,9.0459,0.18919903,7.791017,0.26886868,8.23001,0.1542151,8.897828,0.14640221,10.198096,0.08686037,7.3522964,0.117176555,6.1622453,0.20790856,7.7818336,0.16787758,9.324713,0.04990391,8.868205,0.033491287,9.500659,0.010439712,7.0737123,0.10027303,7.436832,0.12149431,10.428465,0.07256556,9.211579,0.09092266,8.783455,0.0374072,10.392682,0.046316914,9.358596,0.010123768,9.640346,-0.0110244425,8.355774,0.04757056,9.224933,-0.041929875,9.583457,-0.088989794,8.285769,-0.07908773,8.630119,-0.073574394,8.247179,0.013973041,9.569221,0.050030455,7.859488,0.051424228,9.190649,-0.0011489685,9.869053,-0.05266813,6.933777,-0.052045304,8.583784,0.0084393155,6.6907825,-0.0004711368,9.316512,-0.13826726,7.9712176,-0.1330795,8.494876,-0.19814771,7.5328035,-0.19971645,7.4740157,-0.25158146,7.8191566,-0.13436337,6.9226317,-0.016779875,7.1446347,-0.16002412,6.2398343,-0.09738009
2026-03-04 19:20:15.523821,102.98,44663.68,8.133418083190918,6.6030807,0.2845631,7.1880317,0.27206618,6.2816334,0.16887176,8.5250025,0.3355055,6.8339787,0.29833513,7.013709,0.2352692,6.7465687,0.13404481,7.024048,0.1952736,7.9972916,0.06708414,6.4763093,0.16331679,8.2423525,0.21545793,8.953447,0.11364122,7.6987033,0.18524654,8.277599,0.08887332,8.979558,0.11489607,9.986161,0.053188346,7.458491,0.08179474,6.1827736,0.17572974,7.733722,0.1433162,9.211651,0.042724717,8.746391,0.035657186,9.423782,0.008656304,6.982477,0.07321913,7.4266315,0.05477327,10.382415,0.01895077,9.270353,0.036994103,8.898194,0.015766896,10.359457,0.021246282,9.364356,-0.0074582463,9.51892,-0.03235132,8.418211,0.027970357,9.10761,-0.03535689,9.578426,-0.0765588,8.300106,-0.06561289,8.701163,-0.04795219,8.189562,-0.0104162535,9.509217,-0.01189489,7.8617725,-0.005181573,9.169352,-0.05677901,9.91736,-0.07100254,6.7781625,-0.04778518,8.746028,0.00029606806,6.6381984,-0.026000489,9.29698,-0.14924516,7.74898,-0.11284687,8.386323,-0.1826944,7.3691335,-0.17675748,7.388988,-0.227478,7.71941,-0.14386217,6.859955,-0.06127249,7.1187587,-0.19411649,6.34692,-0.13134989
2026-03-04 19:20:15.533745,102.98,44663.68,8.129159927368164,6.8231864,0.21238375,6.6205926,0.22195157,6.6385336,0.12704788,8.250191,0.29401353,7.49003,0.27459383,6.5355325,0.1903929,6.6257987,0.1815044,6.925428,0.2507417,7.7806625,0.11464951,6.915927,0.10015655,8.474144,0.08559168,8.883142,0.00032008046,7.5800557,0.05655175,8.179223,-0.042973883,8.103211,0.073621914,10.4691,0.0073561454,7.3103337,0.030420205,6.719165,0.118857674,7.092364,0.085188866,9.115077,0.06751808,8.6924305,0.06923973,9.289511,0.027327778,7.597392,0.011882715,7.6498637,-0.10103161,10.372754,-0.112537034,8.886796,-0.08420833,8.184516,-0.015136414,11.023694,-0.046880625,9.037039,-0.06487199,10.034479,-0.07963856,7.8054934,-0.052748743,9.24833,-0.021004876,9.376417,-0.06615841,8.521644,-0.029962286,8.491805,-0.042559456,9.055901,-0.07091412,9.63341,-0.15246537,7.8941307,-0.16419166,9.086812,-0.22138396,9.128391,-0.14829037,7.3531814,-0.12112952,8.640697,-0.0790197,7.0710163,-0.08915755,8.777995,-0.22726992,7.9204,-0.1118684,8.069911,-0.18147671,7.4780703,-0.16548966,7.104587,-0.22318415,8.227185,-0.23008332,7.1281343,-0.23521638,7.2665496,-0.39450997,6.136121,-0.2627677
2026-03-04 19:20:15.538617,102.98,44663.68,8.114958763122559,6.897216,0.21315879,6.6032434,0.22662275,6.6129694,0.121706955,8.192826,0.29587418,7.6116047,0.26785934,6.476382,0.18761174,6.5872025,0.19401252,6.9386106,0.2632938,7.762281,0.11604105,6.934817,0.116239406,8.475693,0.09653831,8.816135,0.006484067,7.6230073,0.057547454,8.258582,-0.034257155,8.1265545,0.07757007,10.47875,0.004784698,7.224413,0.029528659,6.8404007,0.116846815,6.9502573,0.085942306,9.060784,0.070483826,8.625366,0.07160436,9.274675,0.030831043,7.6258345,0.02574342,7.6134195,-0.09686015,10.413551,-0.1067434,8.88569,-0.08012178,8.208473,-0.010198518,11.075643,-0.047687657,8.911744,-0.06470997,10.103634,-0.08195058,7.6660504,-0.048461072,9.171895,-0.022824222,9.415257,-0.06726635,8.481127,-0.030093567,8.578998,-0.04031846,9.037262,-0.07260581,9.551875,-0.14640544,7.9078317,-0.15768026,9.105712,-0.21031848,9.11296,-0.14801888,7.412148,-0.12263659,8.511409,-0.07381818,7.1005664,-0.09488779,8.676197,-0.23891208,7.7898674,-0.11423425,8.038302,-0.18066151,7.3570733,-0.1656574,7.1256022,-0.21320452,8.21268,-0.22568202,7.142056,-0.2249198,7.2363496,-0.37046713,6.136878,-0.24578041
2026-03-04 19:20:15.548679,102.98,44663.68,8.152130126953125,6.83675,0.24390382,6.951958,0.24989611,6.542213,0.14234048,8.336879,0.30837154,7.1971455,0.30230173,6.68276,0.2112401,6.7880487,0.15692784,6.9467545,0.23612559,7.9563355,0.07040535,6.668972,0.15104222,8.33088,0.16476156,8.901435,0.06640933,7.703414,0.1319557,8.361322,0.03419668,8.619917,0.106582314,10.292045,0.020291708,7.33239,0.042041525,6.5027533,0.15423185,7.3703694,0.11076962,9.209158,0.055004213,8.6893015,0.061425928,9.416335,0.011712198,7.284696,0.054132342,7.490159,-0.014962968,10.424062,-0.042411715,9.196531,-0.012425867,8.651558,0.0146736335,10.698798,-0.021540718,9.075195,-0.043793887,9.882922,-0.05214773,8.0983,-0.015435522,9.132031,-0.027020149,9.589057,-0.07210053,8.302058,-0.047592957,8.766755,-0.05499085,8.568046,-0.036864705,9.579739,-0.07159956,7.902893,-0.082910165,9.184106,-0.13448396,9.613575,-0.10507,7.0712314,-0.0942396,8.510486,-0.041904517,6.920288,-0.06251936,9.083242,-0.19122787,7.8315907,-0.11007168,8.287941,-0.18970871,7.3007364,-0.16743582,7.3848615,-0.23274575,8.002613,-0.18905826,6.9689736,-0.13696525,7.1799245,-0.29427156,6.2912183,-0.18014152
2026-03-04 19:20:15.553615,102.98,44663.68,8.139123916625977,6.6489887,0.24381335,6.982625,0.267815,6.2723265,0.15536134,8.535396,0.3310873,7.0450974,0.32506156,6.927284,0.20966952,6.7873335,0.17253913,6.937125,0.24025492,7.8973565,0.08530425,6.546137,0.114037015,8.3562975,0.15120065,8.969269,0.048762497,7.726338,0.107777104,8.263839,0.015018602,8.614907,0.106453605,10.104703,0.031411987,7.5424876,0.064125985,6.3181524,0.16780017,7.5548415,0.105217345,9.16092,0.064457886,8.750014,0.04956194,9.358363,0.014861398,7.1982865,0.032451883,7.5361114,-0.036329206,10.392017,-0.05982723,9.178824,-0.03901085,8.629668,0.006660078,10.498123,-0.019020064,9.267267,-0.036522474,9.673388,-0.053628936,8.27883,-0.02942491,9.176734,-0.031014323,9.547906,-0.080362834,8.406314,-0.05657058,8.645116,-0.05028977,8.457369,-0.058312096,9.556994,-0.091262475,7.9112253,-0.111281104,9.148093,-0.16298875,9.631929,-0.11922811,6.952644,-0.09099922,8.749019,-0.04428855,6.7249746,-0.058729503,9.1950245,-0.20797887,7.8937078,-0.11691593,8.261977,-0.19764511,7.384151,-0.17222188,7.274432,-0.23373167,7.8146143,-0.22072795,7.005294,-0.16409436,7.259745,-0.33273274,6.2848897,-0.20919575
2026-03-04 19:20:15.558557,102.98,44663.68,8.170014381408691,6.7982974,0.2776417,6.8850803,0.25354543,6.841375,0.1704271,8.162977,0.3229607,7.383059,0.29040354,6.5930285,0.20982257,6.697285,0.14304446,7.157406,0.21553807,7.9998727,0.07543508,6.953374,0.15747556,8.338566,0.1986434,8.957124,0.110974416,7.5896506,0.16901147,8.335109,0.074194126,8.51705,0.106330365,10.515887,0.04552061,7.141936,0.06359799,6.5636435,0.15109544,7.279686,0.12570484,9.188072,0.05371827,8.892774,0.0561672,9.46973,0.016070252,7.414917,0.075736426,7.5042257,0.027783029,10.430256,0.0011787803,8.972902,0.020907003,8.506522,0.013509212,11.009062,0.005259397,9.052594,-0.02936525,9.971536,-0.043493424,7.813394,0.01295405,9.214654,-0.028914735,9.521172,-0.06597405,8.3543215,-0.04463726,8.543082,-0.059210002,8.732398,-0.009611087,9.534706,-0.02858517,7.8237295,-0.017637234,9.21744,-0.078828804,9.524954,-0.08720051,7.3731556,-0.0835298,8.450686,-0.026393624,6.999917,-0.04969555,8.897496,-0.15983108,7.9569,-0.113393724,8.2421255,-0.17547369,7.488297,-0.16620553,7.438758,-0.21876068,8.226456,-0.14634772,6.913634,-0.08318203,7.2091565,-0.23738867,6.241332,-0.15495574
2026-03-04 19:20:15.563680,102.98,44663.68,8.088695526123047,6.467297,0.22728579,7.2619987,0.2554228,5.9345207,0.113639414,8.566119,0.28937945,6.599041,0.30069035,7.183456,0.21188597,6.885629,0.14897566,6.994742,0.21562313,7.8953905,0.07947032,6.1550508,0.14364205,8.197947,0.15438774,8.950658,0.051526718,7.7991447,0.14738187,8.144781,0.020477898,8.977054,0.10788735,9.686667,0.012240079,7.7090616,0.039302602,5.918118,0.14291108,7.871924,0.098754324,9.274617,0.05348586,8.731518,0.04752272,9.340986,0.009312124,6.762059,0.056516018,7.466472,-0.028193368,10.24834,-0.031517904,9.323506,-0.013964591,8.85699,-0.0064447476,9.97007,-0.027650092,9.509661,-0.0489641,9.268707,-0.07082708,8.713775,-0.024690693,9.113678,-0.042862236,9.542516,-0.07857633,8.211236,-0.053676073,8.546432,-0.057814803,7.996567,-0.046035122,9.601331,-0.08353601,7.933213,-0.07621999,9.059076,-0.14752136,9.83444,-0.10849092,6.519753,-0.10809922,8.846055,-0.051964916,6.3863215,-0.08985631,9.54407,-0.19352253,7.8370676,-0.12290717,8.349232,-0.19596942,7.2608724,-0.17406458,7.343218,-0.2323363,7.4075713,-0.19799791,6.941627,-0.15291092,7.238603,-0.29781368,6.433995,-0.19416459
2026-03-04 19:20:15.573779,102.98,44663.68,8.121954917907715,6.7856374,0.20283185,6.7386107,0.25542313,6.4638467,0.13197978,8.325686,0.30205402,7.404709,0.29605186,6.6895328,0.1805199,6.732069,0.19568871,6.946322,0.2588735,7.792552,0.109231465,6.758831,0.10345487,8.455328,0.09710804,8.812229,5.728986e-06,7.6757584,0.058213655,8.227454,-0.035867237,8.298121,0.09096807,10.306603,0.009389096,7.333105,0.0374628,6.6227636,0.13392776,7.2382374,0.079839885,9.1462,0.07041776,8.65643,0.07012483,9.310518,0.022190193,7.4125323,0.015723376,7.5986786,-0.090795204,10.333392,-0.10891712,9.018218,-0.08075111,8.380131,-0.0031093913,10.88535,-0.046066184,9.036277,-0.05422162,9.915381,-0.067972936,7.9481754,-0.053080276,9.221788,-0.023809317,9.511093,-0.06633698,8.463872,-0.03326807,8.567391,-0.041391063,8.79414,-0.07729452,9.565914,-0.14424595,7.8850107,-0.1622863,9.120686,-0.20711786,9.254738,-0.14089149,7.206269,-0.116157316,8.602436,-0.06298723,6.978963,-0.082005516,8.859531,-0.2332448,7.867973,-0.11129766,8.170059,-0.19069299,7.344483,-0.1660692,7.1313057,-0.2243363,8.00393,-0.23761803,7.0995936,-0.20301747,7.2378526,-0.39137346,6.2059646,-0.24848132
2026-03-04 19:20:15.588774,102.98,44663.68,8.15341854095459,6.6432786,0.3056902,7.0524864,0.28091246,6.4970155,0.19674847,8.215006,0.35919994,7.1782527,0.31812593,7.011816,0.24261814,6.8154817,0.15533812,7.109448,0.2192895,7.7870965,0.0819375,6.824417,0.18173382,8.466158,0.23732747,9.016582,0.13568255,7.6613073,0.21703994,8.090499,0.09519976,8.544758,0.12563954,10.337681,0.067555435,7.265827,0.085137896,6.3456845,0.17278768,7.6138744,0.14452803,9.374621,0.058589138,8.805074,0.049313344,9.343766,0.019833684,7.300817,0.082168475,7.5319095,0.0607,10.339362,0.024125041,9.046116,0.048430253,8.459941,0.014519457,10.649438,0.02026351,9.20645,-0.012035202,9.70529,-0.042259388,8.191887,0.018810445,9.373776,-0.032114085,9.480531,-0.08489868,8.400599,-0.054957874,8.415285,-0.071605384,8.598939,-0.0028456347,9.727741,-0.0060085105,7.8674107,-0.0010574065,9.008115,-0.06866377,9.45742,-0.08070102,7.1562157,-0.072486,8.574291,-0.02915111,6.7866383,-0.03790564,9.177047,-0.16265886,8.030157,-0.13671452,8.301063,-0.1912399,7.5545893,-0.19038002,7.2644153,-0.2522297,8.039437,-0.16436327,7.0748625,-0.07544937,7.1394496,-0.2327157,6.1184573,-0.13911393
2026-03-04 19:20:15.593854,102.98,44663.68,8.103819847106934,6.657725,0.16445322,6.7251883,0.2116447,6.359508,0.09015761,8.408308,0.26703227,7.4105024,0.25109726,6.7312274,0.17794369,6.653093,0.19422369,6.8318143,0.2666213,7.6186004,0.106017016,6.6803465,0.093251444,8.496182,0.05426724,8.832903,-0.033671185,7.7364974,0.027266214,8.125654,-0.08320155,8.291475,0.06919365,10.224066,-0.01364949,7.4994917,0.002962385,6.649298,0.09801087,7.2074885,0.07272514,9.113783,0.064854175,8.599884,0.070823096,9.127316,0.019130953,7.3801107,0.007628615,7.64582,-0.13252768,10.371167,-0.1384788,9.041873,-0.103513464,8.309827,-0.01781756,10.776685,-0.063583724,9.137432,-0.08674281,9.891796,-0.09737247,8.019092,-0.06031608,9.226961,-0.02030224,9.469228,-0.068740256,8.480015,-0.02482976,8.524542,-0.037428204,8.794728,-0.081900865,9.616155,-0.17339592,7.9461784,-0.18661547,9.067438,-0.24590836,9.213618,-0.15620494,7.1532936,-0.12789881,8.728655,-0.08637459,6.9406376,-0.095358856,8.918966,-0.23841977,7.9006853,-0.10137313,8.03384,-0.17521876,7.248682,-0.15676828,7.077318,-0.2280043,7.9398127,-0.24227765,7.1636395,-0.24528617,7.255298,-0.40229982,6.1447854,-0.27055162
2026-03-04 19:20:15.603863,102.98,44663.68,8.133543014526367,6.8042984,0.2550098,6.7623496,0.24984169,6.7801414,0.14650305,8.024087,0.30743933,7.415782,0.29275897,6.683228,0.20117874,6.8666773,0.15156028,7.0329995,0.23132901,7.8648777,0.08594717,6.9249473,0.1532081,8.405112,0.17015144,8.873776,0.07421923,7.6209254,0.14499645,8.22244,0.038775504,8.265952,0.10747557,10.510417,0.027855275,6.9967914,0.04645136,6.637368,0.13890478,7.237012,0.10757817,9.328316,0.05722113,8.749414,0.06478272,9.372013,0.014564141,7.520787,0.06856681,7.628408,-0.004474902,10.368134,-0.034431137,8.914757,-0.004896504,8.2493305,0.006358114,10.951278,-0.019454338,8.812463,-0.046538938,10.091741,-0.0580151,7.8797026,-0.019769005,9.242812,-0.03235517,9.503519,-0.06715225,8.290656,-0.034226667,8.473299,-0.06369921,8.827993,-0.037114426,9.599763,-0.062575996,7.8462486,-0.069974214,9.073509,-0.12794746,9.21558,-0.11694688,7.4187737,-0.107726105,8.2597685,-0.05069307,7.0528455,-0.069292456,8.916823,-0.19083914,7.920833,-0.11908466,8.312544,-0.18563674,7.3924713,-0.16733496,7.322263,-0.2422835,8.188745,-0.17748106,6.992191,-0.1381513,7.1696963,-0.28191388,6.1283736,-0.19001766
2026-03-04 19:20:15.608845,102.98,44663.68,8.147472381591797,6.836054,0.3004353,6.6600122,0.2852156,6.926109,0.19980022,7.92423,0.3567675,7.5163264,0.31766155,6.729541,0.22806096,6.797411,0.17565754,7.176651,0.2356285,7.7589684,0.106478415,7.231917,0.17256962,8.529101,0.21406578,8.907679,0.11005452,7.557723,0.17045774,8.035868,0.0716129,8.054955,0.12805973,10.732229,0.07026903,6.917035,0.083618656,6.6933837,0.17098898,7.215209,0.12942193,9.34917,0.068332255,8.792042,0.06850804,9.2891035,0.03196354,7.715274,0.068124756,7.688804,0.02605438,10.338038,-0.012404316,8.790919,0.0065389485,8.00132,0.020860715,11.193725,0.010408924,8.797821,-0.012547911,10.082914,-0.033240598,7.715362,-0.0048634796,9.384366,-0.023314813,9.373887,-0.0772317,8.486861,-0.03730026,8.270993,-0.064999625,9.08863,-0.026592297,9.76086,-0.03637159,7.823178,-0.053185787,8.99765,-0.09957154,8.970734,-0.09241636,7.597533,-0.08945328,8.3022,-0.03146648,7.027135,-0.03823181,8.789317,-0.1806761,8.080794,-0.1282633,8.228135,-0.18658778,7.6783013,-0.18820605,7.1181083,-0.24149254,8.488539,-0.17726704,7.124094,-0.11798191,7.1355267,-0.27779597,5.9868417,-0.17820428
2026-03-04 19:20:15.613848,102.98,44663.68,8.144015312194824,6.5704765,0.2943797,7.1206226,0.2859712,6.401541,0.1915254,8.4198,0.35281175,6.9456196,0.32830212,6.97198,0.23947304,6.8362026,0.1615497,7.063953,0.22699109,7.9121237,0.08252458,6.552745,0.16444997,8.349646,0.217807,8.959993,0.11875583,7.6959224,0.19567215,8.19686,0.08272605,8.781553,0.12702036,10.146235,0.06414875,7.421332,0.08549156,6.2019634,0.1768843,7.701051,0.13983038,9.312759,0.05632513,8.817655,0.042178594,9.374524,0.01781908,7.1365237,0.07053542,7.465945,0.040063005,10.3775625,0.016845796,9.157928,0.03702888,8.677256,0.021552078,10.439753,0.013802778,9.293232,-0.010253734,9.608845,-0.03633953,8.363145,0.017305953,9.207252,-0.033803817,9.528841,-0.082772255,8.317881,-0.060738888,8.606461,-0.054846324,8.339079,-0.012894892,9.640662,-0.024404673,7.8656983,-0.021381496,9.0886755,-0.07765164,9.70688,-0.082532845,6.8919954,-0.071993485,8.655094,-0.01242519,6.6688848,-0.039278526,9.300051,-0.16483246,7.922655,-0.1289441,8.379839,-0.19804823,7.4567165,-0.18752374,7.344523,-0.23464558,7.8221483,-0.17309132,7.0286374,-0.08007089,7.2012405,-0.24755882,6.2408714,-0.14693348
2026-03-04 19:20:15.623992,102.98,44663.68,8.13107681274414,6.4901066,0.33207062,7.0669975,0.3065055,6.4437737,0.24022694,8.337994,0.38071775,6.948103,0.32840487,7.1668906,0.26662117,6.8236628,0.1670299,7.2306414,0.20783783,7.644375,0.10150911,6.8606086,0.19451223,8.494593,0.2505172,8.98739,0.15017273,7.592751,0.21894632,7.8226895,0.11527589,8.49891,0.13134055,10.296427,0.0983431,7.4009786,0.11574195,6.18199,0.18436186,7.7714624,0.15861793,9.33916,0.064349495,8.90361,0.035238497,9.19962,0.025325686,7.303443,0.08138333,7.594164,0.06654188,10.297575,0.0303275,8.954907,0.04881251,8.261603,0.011736369,10.643013,0.04223835,9.392811,0.008987741,9.522285,-0.02154058,8.278819,0.02215839,9.441379,-0.032441787,9.304604,-0.10004815,8.539593,-0.06872745,8.140234,-0.08207902,8.559577,-0.009133883,9.806499,0.0033132746,7.814582,0.0042779907,8.874576,-0.05310628,9.323727,-0.07635391,7.159789,-0.056058288,8.785039,-0.017711002,6.5579467,-0.026256893,9.19518,-0.14429083,8.118732,-0.13355227,8.192816,-0.20393312,7.770438,-0.20206678,7.0304666,-0.24467762,8.0520735,-0.16407007,7.1578026,-0.0789067,7.1630335,-0.22670189,6.076573,-0.15965436
2026-03-04 19:20:15.628915,102.98,44663.68,8.092520713806152,6.6626997,0.13700403,6.9006023,0.19404131,6.212966,0.07006877,8.437013,0.24288082,7.217962,0.25977618,6.8128304,0.1602234,6.6584883,0.18947488,6.8678374,0.24441734,7.790129,0.10511846,6.435532,0.060509916,8.404092,0.014820645,8.857228,-0.07003873,7.733569,-0.0059031285,8.261025,-0.103617676,8.4986925,0.057648256,10.083226,-0.024481295,7.5827785,-0.0062417006,6.399839,0.07880514,7.2687583,0.047815222,9.109064,0.06923914,8.620749,0.06289062,9.223917,0.020059412,7.1905136,-0.007944229,7.6219115,-0.16329587,10.337016,-0.16335732,9.064719,-0.13037352,8.454912,-0.032092985,10.60691,-0.07025675,9.207257,-0.09100813,9.717747,-0.10664455,8.1596155,-0.07998932,9.140597,-0.025853293,9.477579,-0.06250474,8.409801,-0.034786608,8.5786705,-0.03982965,8.595271,-0.102819465,9.581115,-0.20601232,7.8962626,-0.2276419,9.125367,-0.2742937,9.365851,-0.1724443,7.0103498,-0.13581906,8.795788,-0.08820602,6.706314,-0.13038519,9.052649,-0.25129563,7.8293514,-0.100289114,8.08853,-0.18098271,7.232748,-0.15619071,7.1385317,-0.22126815,7.7187915,-0.25803515,7.0978622,-0.27910975,7.294039,-0.43964353,6.275999,-0.29151762
2026-03-04 19:20:15.634008,102.98,44663.68,8.146834373474121,6.6429152,0.29210818,6.9914923,0.26873592,6.6035404,0.16848005,8.154931,0.31549707,7.1146073,0.28987753,7.0548697,0.22500414,6.922153,0.1459237,7.1181316,0.22021335,7.8715577,0.070879675,6.7875295,0.18854599,8.349241,0.2201575,8.995367,0.13646641,7.653636,0.21001707,8.112904,0.09583484,8.526888,0.12430602,10.319845,0.048407756,7.2432528,0.051645666,6.321203,0.13760573,7.624497,0.13101104,9.467687,0.051049408,8.851194,0.05411486,9.320723,0.0049571395,7.265353,0.098547354,7.5827875,0.04410089,10.347038,0.021915324,9.019393,0.045306753,8.356671,0.013600378,10.605284,0.0040346836,9.16303,-0.039624415,9.707669,-0.05680058,8.156746,0.008068702,9.365146,-0.041880816,9.509194,-0.07255433,8.286875,-0.046917375,8.391505,-0.08003173,8.533831,-0.0037035982,9.688645,-0.011989009,7.8254023,-0.00044145543,9.040418,-0.0692567,9.447095,-0.08014998,7.17088,-0.09793538,8.485133,-0.04066377,6.732905,-0.057059284,9.226887,-0.16381049,8.076624,-0.13060498,8.375915,-0.18549584,7.469018,-0.18416843,7.358239,-0.25334558,7.9702306,-0.15103166,7.0415587,-0.08733404,7.1661925,-0.21613458,6.2215176,-0.1500955
2026-03-04 19:20:15.638908,102.98,44663.68,8.12564754486084,6.8400636,0.23617505,6.77569,0.23238781,6.799103,0.1386521,7.9097366,0.29136345,7.5135713,0.2896882,6.538284,0.19041699,6.676354,0.18581514,7.0142913,0.24169576,7.832055,0.10717652,7.0110416,0.119498365,8.378479,0.120094076,8.898719,0.01987922,7.529147,0.082920566,8.182946,-0.00528824,8.189496,0.09465097,10.6174555,0.02515231,7.0333843,0.034558523,6.6529374,0.12879105,7.0655193,0.08984071,9.18304,0.07156735,8.72784,0.07333695,9.314858,0.028832024,7.680825,0.035708573,7.664475,-0.06484162,10.378095,-0.08281066,8.825047,-0.059098773,8.196979,-0.00040114528,11.216109,-0.023556106,8.780532,-0.055355933,10.082115,-0.06414246,7.7419357,-0.037540194,9.190903,-0.016672438,9.433907,-0.061277952,8.471153,-0.031230293,8.388567,-0.053557206,9.034004,-0.062994435,9.586381,-0.11010767,7.827263,-0.1370995,9.077424,-0.18489756,9.028229,-0.12642735,7.609887,-0.108659215,8.381941,-0.062780604,7.031791,-0.08635894,8.713521,-0.21310252,7.8564067,-0.114695266,8.179416,-0.18156315,7.539465,-0.17550148,7.2651215,-0.22763693,8.275657,-0.2075335,7.016695,-0.20012864,7.231422,-0.34561977,6.144381,-0.23536699
2026-03-04 19:20:15.649017,102.98,44663.68,8.11672306060791,6.7530527,0.24388002,6.888918,0.24958853,6.6171846,0.13759315,8.201759,0.29910693,7.250292,0.29442564,6.6424856,0.2001638,6.7113333,0.16378243,6.988615,0.23297265,7.9772654,0.089104205,6.77316,0.13990952,8.267673,0.15187839,8.884997,0.060387477,7.642817,0.12225817,8.238509,0.025620723,8.4978285,0.103532866,10.335752,0.027975036,7.193776,0.036665827,6.5176964,0.13745162,7.2693586,0.104148366,9.222518,0.05864855,8.694281,0.0644912,9.398531,0.01886716,7.4269924,0.055044428,7.5149965,-0.028194074,10.367888,-0.047208127,9.02831,-0.029558312,8.502367,0.003549955,10.792247,-0.018001216,8.96887,-0.045948334,9.862079,-0.058987774,7.9902596,-0.020178746,9.098169,-0.027798757,9.500512,-0.066452205,8.280536,-0.04344155,8.583664,-0.050322272,8.650047,-0.052880514,9.506922,-0.087856345,7.8434625,-0.09762422,9.13439,-0.15071364,9.398557,-0.11105268,7.1783957,-0.097914964,8.511862,-0.04573429,6.851378,-0.073405676,8.971266,-0.20164916,7.814657,-0.11164717,8.244292,-0.19000003,7.3572526,-0.16803083,7.363448,-0.22865795,7.9916697,-0.18950132,6.942473,-0.15808302,7.2138762,-0.30966264,6.2109356,-0.19914714
2026-03-04 19:20:15.664120,102.98,44663.68,8.097108840942383,6.694,0.2519301,6.8878345,0.24812862,6.51286,0.1523047,8.169974,0.31509227,7.1761785,0.29227394,6.8239098,0.20070551,6.7454457,0.16726908,7.055311,0.21986099,7.8084326,0.10347017,6.813065,0.13646719,8.3214035,0.15549937,8.924683,0.058352195,7.6087127,0.12694839,8.127615,0.02127728,8.4178915,0.10028659,10.331293,0.041305866,7.2165995,0.0629319,6.4728804,0.13426027,7.3629994,0.101770274,9.2548685,0.060432434,8.679061,0.052150637,9.3257675,0.027350882,7.4230065,0.050360452,7.506403,-0.027292619,10.314568,-0.04153224,8.89975,-0.021715023,8.349451,-0.0017769715,10.766667,-0.009899832,9.018447,-0.025439514,9.760328,-0.05857814,7.9966416,-0.013491888,9.161995,-0.032774515,9.422495,-0.064332105,8.348132,-0.044317182,8.493924,-0.052882873,8.688542,-0.046502184,9.575009,-0.075697474,7.822952,-0.08677522,9.013488,-0.1453089,9.285017,-0.1109825,7.143118,-0.08538636,8.494932,-0.0383892,6.7901897,-0.064488,8.951494,-0.1958857,7.854238,-0.117534235,8.205193,-0.18368198,7.4433804,-0.17741106,7.274611,-0.23019327,7.9925647,-0.19328813,7.0047336,-0.15394622,7.1938186,-0.29997015,6.123813,-0.20287338
2026-03-04 19:20:15.669107,102.98,44663.68,8.082725524902344,6.866979,0.1598809,6.65676,0.17740813,6.5471272,0.07285757,8.101886,0.24455526,7.5062923,0.23558508,6.599896,0.14676093,6.6647468,0.19219443,6.942841,0.25223398,7.6171813,0.11328037,6.8004456,0.08748095,8.4974375,0.020896565,8.796676,-0.051463746,7.5401416,0.015011784,8.107705,-0.09165791,8.0647135,0.049879033,10.40164,-0.023547728,7.335086,-0.014487521,6.7118626,0.062119056,7.080053,0.049579337,9.207942,0.06400743,8.6364975,0.07696731,9.155925,0.031419,7.586824,0.009027701,7.6769514,-0.15367872,10.340111,-0.15117615,8.798066,-0.11494534,8.038083,-0.029369542,11.005854,-0.07637771,8.991458,-0.08931405,9.937027,-0.1057623,7.790643,-0.07795637,9.265575,-0.020974115,9.298727,-0.052824408,8.451347,-0.008501416,8.369085,-0.033064567,9.02974,-0.0904509,9.638084,-0.19077586,7.9236636,-0.20094082,8.910622,-0.26288557,8.914206,-0.16613004,7.3028865,-0.14682136,8.623226,-0.10044761,6.967813,-0.12396072,8.710934,-0.23914601,7.905327,-0.10633986,7.9690857,-0.17168762,7.3744793,-0.14466816,7.0312095,-0.20550153,8.150406,-0.24465145,7.1304984,-0.27356428,7.2324777,-0.42189792,6.0975027,-0.28662628
2026-03-04 19:20:15.679078,103.19,44662.58,8.10456371307373,6.3839536,0.26663113,7.317121,0.25883815,6.1025276,0.14842154,8.525705,0.3105396,6.520558,0.29485008,7.3159204,0.22201042,6.848934,0.13667333,7.1490984,0.19474705,7.935931,0.081010275,6.3537307,0.1553528,8.248338,0.18817894,9.026045,0.09687263,7.647205,0.18040366,8.000163,0.070388846,8.990407,0.10818864,9.829989,0.047391955,7.714329,0.062020607,5.788524,0.14275903,8.028768,0.117612034,9.312101,0.05112859,8.871205,0.03616266,9.316867,0.006429876,6.8943396,0.06732499,7.494453,0.012819198,10.365327,0.004150928,9.160846,0.02129939,8.639788,-0.005283664,10.059925,0.011964321,9.647942,-0.03181002,9.186348,-0.056450337,8.733122,0.0020608571,9.196124,-0.048080627,9.422083,-0.07549687,8.3534,-0.06094877,8.37056,-0.06377554,8.081593,-0.023375664,9.561768,-0.03248445,7.868579,-0.031370617,8.922398,-0.085990556,9.742003,-0.095108576,6.6233077,-0.0770211,8.961113,-0.020723,6.239013,-0.049992755,9.541899,-0.16518712,7.9155293,-0.12827484,8.376384,-0.18662223,7.5086684,-0.1843162,7.30699,-0.23817948,7.497322,-0.17446132,6.977974,-0.11491999,7.2020288,-0.22998843,6.359065,-0.16706057
2026-03-04 19:20:15.684188,103.13,44661.48,8.070856094360352,6.680014,0.20259921,6.727279,0.21874298,6.5080233,0.122213826,8.133095,0.28357974,7.347543,0.27707863,6.7676134,0.1703006,6.6672406,0.18971963,6.9710093,0.23287004,7.6789856,0.1137076,6.85552,0.098437786,8.427574,0.084637046,8.861638,-0.009881191,7.5067835,0.050138127,8.031858,-0.035983805,8.181463,0.07567651,10.378082,0.016451737,7.246099,0.024104962,6.510837,0.11225463,7.2041183,0.06997247,9.166556,0.07296941,8.675892,0.07363126,9.1782465,0.032702986,7.551555,0.022114133,7.6373825,-0.09249086,10.290207,-0.10818673,8.7634115,-0.081714675,8.105354,-0.014703145,10.908312,-0.036955327,8.987243,-0.059242062,9.776246,-0.06828623,7.8685036,-0.052017856,9.207089,-0.01771253,9.295858,-0.06250629,8.4937525,-0.02608125,8.289345,-0.044610627,8.90809,-0.070304,9.627634,-0.13272889,7.88126,-0.1649501,8.872393,-0.20766392,9.037309,-0.13560666,7.2907157,-0.10496998,8.568421,-0.07013078,6.8089347,-0.079183854,8.771598,-0.21873446,7.9124255,-0.10811771,8.053892,-0.16824389,7.4299784,-0.16693611,7.096928,-0.2227692,8.130406,-0.2269395,7.051383,-0.22380415,7.2692866,-0.3718778,6.0941467,-0.2531976
2026-03-04 19:20:15.715384,102.96,44661.36,8.08363151550293,6.717423,0.28955293,6.8625917,0.2517234,6.6624455,0.17036808,7.921926,0.2988963,7.249598,0.27959114,6.840124,0.22464623,6.8130994,0.16807365,7.1241097,0.21354981,7.780187,0.10445063,6.9441886,0.16307941,8.298469,0.17155127,8.881549,0.08693625,7.5378613,0.14995898,7.997136,0.067902304,8.335617,0.10871722,10.484031,0.052453037,7.1114354,0.047404286,6.380753,0.121254854,7.4233522,0.11168526,9.367488,0.064632416,8.796805,0.059900384,9.229365,0.02635936,7.4390664,0.0685784,7.6037726,-0.010199828,10.246098,-0.018969039,8.749102,-0.006993438,8.050978,-0.0004132543,10.893265,0.00023535958,8.984339,-0.049790252,9.711102,-0.06794977,7.910118,-0.012533868,9.296514,-0.03160794,9.267683,-0.07376826,8.347112,-0.04397503,8.236824,-0.07061613,8.8112,-0.02773076,9.655714,-0.05942015,7.825988,-0.06231613,8.862333,-0.11134169,9.055221,-0.10489446,7.3300314,-0.10706796,8.440127,-0.053825207,6.741755,-0.07925432,8.802703,-0.17935859,7.9637694,-0.13124205,8.155698,-0.19267197,7.5380573,-0.19298196,7.1714344,-0.23278336,8.082598,-0.17709938,7.0893865,-0.17565729,7.184894,-0.27080145,6.142406,-0.21047492
2026-03-04 19:20:15.724302,102.96,44661.36,8.082066535949707,6.4939322,0.31311622,7.1107354,0.28551954,6.336093,0.19912696,8.221536,0.33316383,6.8401375,0.30420613,7.233303,0.24246086,6.806754,0.16458672,7.2339497,0.21756251,7.7575517,0.09500515,6.7217946,0.19351742,8.337715,0.2278156,8.943508,0.14085737,7.570642,0.22165428,7.8365126,0.12024852,8.588466,0.13016623,10.195806,0.073341444,7.42431,0.07587722,6.0013433,0.15320078,7.8002086,0.13413933,9.397695,0.057822037,8.837236,0.051402513,9.237102,0.019886773,7.1613092,0.0965343,7.5757656,0.04891958,10.232871,0.036827818,8.859547,0.04934158,8.246836,0.008049599,10.489983,0.018627275,9.370334,-0.022255491,9.292992,-0.048937738,8.35512,0.011778524,9.335917,-0.037023205,9.242792,-0.08874639,8.382602,-0.05036092,8.157308,-0.08305483,8.4566345,-0.0030720283,9.717675,-0.008328133,7.8191266,-0.000910921,8.795762,-0.053514425,9.317035,-0.07328185,6.9710255,-0.096064106,8.706958,-0.0433476,6.3972106,-0.054722916,9.206966,-0.15716241,8.017239,-0.14170878,8.196854,-0.19138727,7.6241975,-0.19276087,7.15238,-0.2519861,7.811005,-0.15631364,7.1375704,-0.11761487,7.1459913,-0.21517785,6.164109,-0.16662917
2026-03-04 19:20:15.729288,102.96,44661.36,8.056385040283203,6.520748,0.24160707,7.1433144,0.2381761,6.273728,0.12311949,8.21286,0.27186537,6.7667837,0.27270547,7.0469213,0.20319918,6.89095,0.14064543,7.0564723,0.20495072,7.941111,0.076427124,6.4590335,0.14180905,8.108594,0.16142939,8.848767,0.070783846,7.6561437,0.1446709,8.128678,0.05184727,8.797083,0.105409004,9.971804,0.027302975,7.4052014,0.04027768,6.0252447,0.11765052,7.7029667,0.10147009,9.3697,0.04781708,8.728749,0.052349266,9.278397,0.013178349,7.0907006,0.06635975,7.435019,-0.0128611745,10.269024,-0.018618371,9.025863,-0.004848705,8.510987,-0.00414016,10.278903,-0.012008862,9.2471485,-0.049381163,9.450472,-0.06277204,8.360502,-0.0031764451,9.073005,-0.03833237,9.46569,-0.063165426,8.109383,-0.043325584,8.423243,-0.057549734,8.248214,-0.032732513,9.438067,-0.06499341,7.8188624,-0.060271136,8.8820095,-0.10929218,9.529489,-0.09774573,6.808321,-0.0970513,8.644857,-0.03778601,6.4857173,-0.0765691,9.230963,-0.17821217,7.731016,-0.12098312,8.354564,-0.18410917,7.313956,-0.1748652,7.4066086,-0.2250672,7.599838,-0.1663906,6.893906,-0.14599939,7.205408,-0.24862547,6.267058,-0.18604526
2026-03-04 19:20:15.734357,102.96,44661.36,8.072943687438965,6.7956886,0.315118,6.7914267,0.27122906,6.913678,0.17914599,7.838146,0.3142671,7.345117,0.29475597,6.5935802,0.22707897,6.8302016,0.14646415,7.097457,0.20246361,7.916839,0.09488021,7.043352,0.1726049,8.238304,0.21734694,8.761575,0.124651514,7.5075135,0.1896647,8.100802,0.10243977,8.334801,0.12470863,10.5435,0.06939125,6.8406157,0.06996475,6.5405354,0.15472479,7.225222,0.13818265,9.305866,0.047790788,8.764367,0.059404593,9.34757,0.027956339,7.5827317,0.08843978,7.489515,0.050883736,10.24806,0.023994232,8.827349,0.033410583,8.211175,0.018251576,10.917931,0.016792636,8.664591,-0.023113098,9.931231,-0.024147373,7.78525,0.02527023,9.069747,-0.029013118,9.426396,-0.06762892,8.222152,-0.04546185,8.413272,-0.062670365,8.815358,-0.012375007,9.470002,-0.012385348,7.796933,-0.020718789,8.961198,-0.06371893,9.111172,-0.08007704,7.2886333,-0.071809225,8.135116,-0.009914167,6.997203,-0.038773105,8.801641,-0.15275183,7.7139354,-0.12972388,8.330328,-0.18184344,7.384089,-0.17587368,7.3746266,-0.2238737,8.10341,-0.13538113,6.9017124,-0.08885231,7.0608783,-0.20868374,6.0813117,-0.13977607
2026-03-04 19:20:15.749355,101.99,44656.76,8.044175148010254,6.939088,0.21455935,6.6156626,0.20199364,6.9256377,0.100016125,7.807641,0.24105795,7.577908,0.25048482,6.309316,0.15841621,6.7595935,0.15834658,6.8960395,0.2327472,7.909383,0.103804894,6.9708257,0.100348204,8.161448,0.06726413,8.732713,-0.007247682,7.5479255,0.039543852,8.261251,-0.0294001,8.172143,0.07067304,10.5817375,-8.5189175e-05,6.82449,-0.005792941,6.805196,0.08678192,6.799149,0.06755603,9.179507,0.062394943,8.650869,0.082533814,9.345506,0.03803081,7.7271695,0.034028318,7.454877,-0.100289755,10.328936,-0.101452164,8.6856,-0.0842858,8.147318,-0.013482441,11.099,-0.046700995,8.4166355,-0.07872262,10.196764,-0.0795399,7.5006375,-0.050032478,8.888596,-0.024646353,9.436683,-0.047856092,8.125734,-0.0221189,8.539476,-0.03664717,8.989222,-0.07220273,9.368964,-0.15143323,7.83084,-0.1640901,9.081987,-0.20048931,8.85711,-0.14243636,7.399805,-0.11934473,8.036007,-0.06825915,7.171444,-0.11275932,8.508618,-0.2198081,7.560926,-0.096540846,8.248919,-0.17853616,7.2139072,-0.15536325,7.431796,-0.20408885,8.125517,-0.1993057,6.830855,-0.22989777,7.1757607,-0.34574318,6.1449437,-0.24322864
2026-03-04 19:20:15.754463,105.93,44654.1,8.048870086669922,6.6788974,0.23342882,7.027098,0.23266074,6.4439626,0.1068761,8.141246,0.25990623,6.991537,0.26159242,6.7981257,0.18006824,6.6932254,0.15046741,7.0882673,0.20923287,7.915589,0.08921876,6.717127,0.13641192,8.114456,0.13298418,8.846968,0.048832145,7.5306416,0.10337568,8.112756,0.020485742,8.566752,0.09540699,10.197775,0.018901782,7.268487,0.026729375,6.2801013,0.10476533,7.3673835,0.08360008,9.203887,0.0555251,8.724075,0.06979771,9.301457,0.015125595,7.3960366,0.061958466,7.3845997,-0.046457395,10.3808,-0.042285327,8.834164,-0.03100362,8.359523,-0.00047029575,10.6330185,-0.029139547,9.038715,-0.06081539,9.690652,-0.0672295,8.031794,-0.025627756,8.90529,-0.030098187,9.322063,-0.05655058,8.200938,-0.03329196,8.4292755,-0.059114803,8.592385,-0.04338116,9.402258,-0.085421845,7.8404145,-0.10196217,8.965099,-0.14387816,9.286071,-0.11228429,7.047582,-0.115793124,8.480233,-0.053576875,6.6873555,-0.081494235,8.977575,-0.1958029,7.5798063,-0.11397446,8.284264,-0.17960832,7.3776574,-0.16357373,7.3996286,-0.23153181,7.807118,-0.17255527,6.832326,-0.1768856,7.175228,-0.29087478,6.1895814,-0.19566874
2026-03-04 19:20:15.764358,106.99,44653.01,8.037055015563965,6.5734806,0.21027663,7.002503,0.22751875,6.3116565,0.11628915,8.148898,0.26951155,6.921319,0.27375618,6.98095,0.1854724,6.8144484,0.1744717,7.029834,0.2194443,7.84223,0.11988202,6.540844,0.10215576,8.232433,0.087570496,8.808781,-0.005107859,7.5664706,0.0676037,8.08109,-0.024915554,8.496556,0.07795083,10.129258,0.02547283,7.3396244,0.021281717,6.145154,0.09566808,7.4985194,0.07298578,9.234996,0.069143295,8.739747,0.05946875,9.185762,0.037655313,7.242946,0.03141109,7.567319,-0.09176239,10.247445,-0.08883587,8.835609,-0.06720011,8.207086,-0.02569841,10.483201,-0.032401983,9.137241,-0.06904128,9.524481,-0.08367786,8.1823635,-0.047651455,9.077815,-0.029759075,9.333193,-0.064625,8.272685,-0.038266663,8.325992,-0.04854471,8.493609,-0.0801487,9.555223,-0.13761221,7.827452,-0.15273315,8.870642,-0.19074544,9.229162,-0.14523265,7.027398,-0.118821554,8.597111,-0.06959995,6.4745345,-0.10458956,9.06391,-0.22175749,7.76621,-0.11607963,8.236514,-0.1855828,7.3440795,-0.18108605,7.2305984,-0.23092923,7.6714554,-0.23185126,7.011437,-0.24198523,7.2338376,-0.3567881,6.2317667,-0.25147298
2026-03-04 19:20:15.769466,106.99,44653.01,8.02119255065918,6.715076,0.19953212,6.8283997,0.2196907,6.427218,0.10061692,8.054827,0.25505045,7.2075953,0.26455012,6.697085,0.17444785,6.6865997,0.18761995,6.9324775,0.24452318,7.7958903,0.11080406,6.696711,0.107912935,8.228991,0.07164077,8.768335,-0.0076115835,7.5367513,0.045995336,8.167648,-0.03482141,8.38675,0.0840192,10.20072,0.0053763594,7.2106614,0.006414651,6.4262843,0.09204473,7.203645,0.07001456,9.178931,0.066508904,8.622655,0.07888129,9.2284565,0.029887242,7.4425497,0.030662987,7.469571,-0.102517255,10.218575,-0.100971095,8.7715,-0.084222026,8.210466,-0.0144799445,10.685291,-0.04586229,8.911848,-0.072232656,9.710098,-0.08371182,7.8862543,-0.061764784,8.981569,-0.023867976,9.290117,-0.05947483,8.187087,-0.024469506,8.424505,-0.0465854,8.709017,-0.07876455,9.454429,-0.151867,7.831756,-0.1741303,8.922729,-0.2186476,9.070351,-0.14091553,7.096365,-0.1345632,8.472534,-0.080012165,6.71387,-0.115307406,8.843479,-0.23272866,7.662098,-0.10718909,8.180766,-0.18321444,7.28169,-0.16836569,7.272359,-0.22808814,7.7834463,-0.23599827,6.989555,-0.25943437,7.201009,-0.37634963,6.2253914,-0.25885156
2026-03-04 19:20:15.779547,107.91,44652.2,8.036499977111816,6.6389737,0.24104404,7.022758,0.22636266,6.4679236,0.121401094,7.9713902,0.260583,6.9281383,0.25985822,6.936876,0.19642049,6.790226,0.1504214,7.0395813,0.20217223,7.9345846,0.100230135,6.643528,0.12017896,8.132325,0.12293956,8.836595,0.037028056,7.5363684,0.102314316,8.020742,0.025220135,8.6155,0.091257334,10.220551,0.031737484,7.207267,0.034474168,6.1772995,0.10572964,7.460561,0.087671444,9.339133,0.05403238,8.701191,0.055103112,9.234722,0.0319848,7.276072,0.05309721,7.4979515,-0.04111872,10.257562,-0.043445647,8.854333,-0.03302757,8.327311,-0.0039071445,10.542565,-0.009878491,9.015725,-0.050593488,9.537213,-0.057364907,8.156534,-0.018245257,9.018874,-0.03048968,9.299194,-0.06347205,8.2136135,-0.039488424,8.34064,-0.052407283,8.524392,-0.05469384,9.530364,-0.085049614,7.803383,-0.102687515,8.823449,-0.13375565,9.252467,-0.10751916,6.9950285,-0.086162776,8.457229,-0.0407471,6.5517664,-0.07644995,9.06178,-0.18831947,7.7116895,-0.10996064,8.283098,-0.18332928,7.324015,-0.17405105,7.387203,-0.2184187,7.749546,-0.18188494,6.9426703,-0.18007989,7.1001415,-0.27206147,6.20597,-0.2066436
2026-03-04 19:20:15.784510,107.91,44652.2,8.02466106414795,6.7676454,0.22801419,6.832598,0.2174904,6.592071,0.12245658,7.8857856,0.26068932,7.2266173,0.25847688,6.7160335,0.1853079,6.766933,0.15675242,7.012334,0.21612898,7.8496833,0.11385016,6.845236,0.12338509,8.150017,0.10526753,8.789116,0.019328509,7.5447454,0.085711665,8.132311,0.002965695,8.314106,0.083569385,10.360508,0.023665177,7.0809608,0.022361945,6.3549566,0.09045358,7.2042217,0.0779315,9.253941,0.06278922,8.754782,0.069378406,9.212221,0.03875711,7.475922,0.052314606,7.439594,-0.06896026,10.199765,-0.07096815,8.693316,-0.052672338,8.133809,-0.019123899,10.765975,-0.028257405,8.831003,-0.06673948,9.727227,-0.07776,7.815179,-0.037818294,9.041219,-0.031122366,9.301558,-0.05800529,8.231676,-0.02848487,8.298738,-0.05094547,8.768776,-0.06012779,9.441017,-0.11785241,7.7938676,-0.12505317,8.883938,-0.16596316,9.017419,-0.1286426,7.1937838,-0.11553114,8.338701,-0.069216296,6.7490754,-0.101995304,8.760315,-0.21100736,7.691965,-0.12093995,8.22518,-0.18557817,7.3841076,-0.17406733,7.323084,-0.2258425,7.8788457,-0.20627312,6.911117,-0.21698323,7.1412725,-0.31795365,6.1781344,-0.23431115
2026-03-04 19:20:15.789623,107.91,44652.2,7.9782867431640625,6.6457953,0.28621536,6.8039775,0.25939238,6.4032035,0.16485146,7.842502,0.2856966,7.011423,0.26805714,7.004586,0.2138722,6.862909,0.1598221,7.067045,0.1997648,7.745434,0.11605679,6.7295747,0.14317633,8.204014,0.15166694,8.6593075,0.08078739,7.4605927,0.13746677,7.9564204,0.060065858,8.367392,0.11635917,10.230775,0.065872476,7.113714,0.05410853,6.219242,0.113346405,7.454637,0.11532988,9.392877,0.05901564,8.701904,0.058418848,9.099103,0.039256,7.3028207,0.060755525,7.437285,-0.014273478,10.025815,-0.013019648,8.690353,-0.010841113,8.090041,-0.00097151776,10.501804,0.0041378727,8.903756,-0.037492678,9.463284,-0.049162835,7.9510384,-0.0050719287,9.162771,-0.040815227,9.23551,-0.0671254,8.1863575,-0.045070816,8.176184,-0.054630227,8.566727,-0.037252463,9.434018,-0.064030945,7.765242,-0.07057106,8.719883,-0.10826651,9.009676,-0.100794725,6.969529,-0.09166473,8.340473,-0.04029758,6.575478,-0.07876971,8.888593,-0.1741183,7.770615,-0.1256654,8.26356,-0.18607362,7.375358,-0.19391166,7.2850933,-0.22438955,7.6237707,-0.18551323,6.971554,-0.16664156,7.0611334,-0.25664246,6.1467443,-0.19455944
2026-03-04 19:20:15.794592,107.91,44652.2,8.0069580078125,6.4893312,0.22229393,7.0553966,0.22425207,6.14903,0.10915256,8.251206,0.25810623,6.7744412,0.25393403,7.1064634,0.18923527,6.7937093,0.15790015,7.042289,0.21223414,7.7639213,0.10472711,6.4993086,0.123508066,8.163668,0.10051597,8.907912,0.019397635,7.491335,0.087089315,7.943274,0.0011811678,8.597575,0.08591274,9.91099,0.022100387,7.516723,0.018467208,5.9707646,0.081837036,7.6806974,0.087719776,9.269307,0.061780136,8.717108,0.06358411,9.118911,0.027330015,7.1775107,0.052437183,7.4252477,-0.07946269,10.246283,-0.06407268,8.817324,-0.05078071,8.285641,-0.023620471,10.271332,-0.027656537,9.272606,-0.069169074,9.277859,-0.08809726,8.326973,-0.033488445,9.077501,-0.030019786,9.198189,-0.06776467,8.2501745,-0.029607385,8.241457,-0.0486772,8.372257,-0.060310915,9.539596,-0.1212611,7.80019,-0.12189688,8.721135,-0.17088026,9.277307,-0.12404153,6.8023777,-0.11117105,8.707351,-0.07228232,6.298676,-0.10748102,9.146517,-0.19499643,7.7443905,-0.11117527,8.196324,-0.18910918,7.400033,-0.17470284,7.2913346,-0.22728696,7.5801725,-0.21031557,6.9633746,-0.22230034,7.191654,-0.32149807,6.247676,-0.23663363
2026-03-04 19:20:15.799512,109.2,44649.57,8.007841110229492,6.708407,0.28307468,6.597398,0.24792384,6.843548,0.17566687,7.665491,0.29242218,7.4164433,0.27055928,6.725288,0.20656651,6.818973,0.17549501,7.1104546,0.21060178,7.648533,0.12925312,7.23793,0.14130686,8.362769,0.15303542,8.766015,0.06203908,7.3698754,0.12794052,7.7453327,0.03844447,7.9164286,0.10449989,10.628581,0.063312344,6.7894735,0.054247815,6.602506,0.123147905,7.1439524,0.096840896,9.324858,0.066125646,8.684845,0.06203807,9.055144,0.04628546,7.793005,0.055943515,7.6479325,-0.027077347,10.148374,-0.036973473,8.452761,-0.033726506,7.7510843,0.0027227201,10.989714,0.0014912456,8.592618,-0.034971803,9.881273,-0.04915919,7.6015773,-0.015040336,9.209412,-0.02152128,9.190381,-0.06633987,8.337968,-0.03838923,8.077034,-0.057316735,9.088864,-0.044749442,9.5849,-0.07087339,7.7817297,-0.093372695,8.67614,-0.12861782,8.626685,-0.10568303,7.5602446,-0.08160588,8.074874,-0.043795783,6.887774,-0.06547373,8.6002035,-0.18026002,7.833207,-0.12540689,8.047405,-0.18482862,7.565677,-0.18427412,7.073685,-0.22250997,8.1714945,-0.18633518,7.0156035,-0.19190368,7.0879135,-0.28267923,5.8959384,-0.22032645
2026-03-04 19:20:15.814808,109.44,44635.56,8.000101089477539,6.733922,0.21996458,6.741769,0.20860307,6.605542,0.11559468,7.883144,0.24407347,7.187563,0.24341783,6.7623754,0.16794987,6.8110795,0.15828966,7.058091,0.20866627,7.7704654,0.11406792,6.8833957,0.11379167,8.24792,0.09006897,8.697245,0.010197991,7.4669414,0.067229755,7.9980836,-0.0140460385,8.210268,0.08039353,10.391985,0.022444377,7.04111,0.007507291,6.3956213,0.08165453,7.245787,0.07556698,9.266572,0.05996149,8.705908,0.07350537,9.1527605,0.033045456,7.4774246,0.04367836,7.551022,-0.08244772,10.075167,-0.07687792,8.608917,-0.06535567,7.98075,-0.01368519,10.760798,-0.028872756,8.793738,-0.07185638,9.702324,-0.08001735,7.818118,-0.042453673,9.138467,-0.026075153,9.2307625,-0.05023451,8.240464,-0.023599956,8.185942,-0.04492418,8.785943,-0.058557034,9.469521,-0.12116832,7.77711,-0.13242039,8.855846,-0.17245425,8.870137,-0.1244144,7.236137,-0.116867445,8.258102,-0.06299849,6.701061,-0.100796446,8.769752,-0.20542173,7.7670975,-0.10596544,8.202447,-0.16622312,7.3900347,-0.16614893,7.140244,-0.21654683,7.8452682,-0.19678573,6.9721704,-0.22174396,7.0431542,-0.325997,6.0998096,-0.22992113
2026-03-04 19:20:15.819568,109.92,44635.62,7.985592842102051,6.8187165,0.22516428,6.761756,0.20615146,6.5896397,0.1121786,7.8571134,0.24654634,7.2727857,0.245771,6.576735,0.17752354,6.693355,0.15949416,6.9887347,0.21915476,7.8324666,0.1155618,6.825037,0.113332324,8.110594,0.08307459,8.688339,0.004570549,7.5001893,0.05831957,8.112981,-0.013991386,8.275189,0.07934916,10.361508,0.01662101,6.9774714,0.006516496,6.477152,0.08679511,7.102662,0.07343323,9.16027,0.061032414,8.662367,0.0769284,9.180297,0.039406337,7.528844,0.044179033,7.44796,-0.08526428,10.185952,-0.07825073,8.656107,-0.06894874,8.079124,-0.01141871,10.756757,-0.035422023,8.744519,-0.06695928,9.768774,-0.083737195,7.706161,-0.03622309,8.952583,-0.024771588,9.28084,-0.054929305,8.1643505,-0.032107156,8.3400545,-0.036971334,8.771382,-0.063899405,9.35378,-0.13330805,7.780667,-0.13959461,8.880963,-0.17721593,8.936907,-0.12740056,7.1624455,-0.10861294,8.248311,-0.059828304,6.781374,-0.10988792,8.666985,-0.20720337,7.5583687,-0.10854682,8.178782,-0.17963979,7.275383,-0.16717352,7.309962,-0.20575427,7.8372083,-0.1996953,6.8532047,-0.2309999,7.1031747,-0.3240212,6.114534,-0.23128664
2026-03-04 19:20:15.824672,103.5,44638.68,7.991376876831055,6.5786676,0.26428574,6.9532332,0.24073413,6.398215,0.13591094,7.9886274,0.26069236,6.880643,0.26199076,6.9251165,0.20623711,6.88176,0.13809611,7.0049806,0.20523895,7.9489484,0.09757507,6.6393695,0.15177353,8.074723,0.16742401,8.676709,0.08760369,7.57553,0.15258555,8.034651,0.07128602,8.623891,0.11334754,10.073211,0.043319155,7.112475,0.036144074,6.165038,0.11546278,7.454383,0.104022704,9.335617,0.04501888,8.657594,0.06336942,9.263647,0.021968221,7.249897,0.07859169,7.3949347,0.008681129,10.1578865,0.0069924924,8.8316765,0.004076626,8.317871,0.0020451185,10.339179,-0.002427732,8.886734,-0.040217087,9.5526,-0.052904643,8.152714,0.00027929188,8.949226,-0.04315134,9.375642,-0.060371503,8.036599,-0.044453274,8.395376,-0.06197603,8.4274645,-0.030180177,9.364658,-0.05341526,7.7954154,-0.051179726,8.797009,-0.090967886,9.223868,-0.09310125,6.8716106,-0.08846728,8.302361,-0.03025198,6.579133,-0.07224234,9.009956,-0.17236376,7.5687885,-0.12470577,8.397647,-0.17475644,7.244527,-0.17657611,7.4439597,-0.22889313,7.5409718,-0.15598892,6.8679953,-0.14397745,7.0527353,-0.22345266,6.176157,-0.16987178
2026-03-04 19:20:15.834570,99.85,44641.91,7.924511909484863,6.692452,0.20969239,6.802944,0.20283578,6.4283595,0.101973474,7.814552,0.21362029,7.07335,0.23212326,6.694135,0.1600746,6.8780417,0.15733838,6.9667544,0.22076136,7.7658463,0.12379371,6.760032,0.10449961,8.053179,0.06785168,8.555758,-0.0016941971,7.409023,0.050358962,7.991917,-0.017008383,8.282423,0.0755676,10.149207,0.006847908,6.9927144,-0.0025286155,6.30459,0.06472824,7.1984663,0.06578663,9.220847,0.056351148,8.684312,0.081558295,9.061014,0.0472396,7.3955574,0.04750018,7.4869866,-0.09348708,10.017782,-0.07361701,8.581457,-0.0666384,8.044329,-0.01907461,10.505557,-0.041326635,8.675968,-0.077684164,9.631962,-0.09566887,7.797914,-0.04984798,8.956777,-0.037522472,9.188672,-0.048673324,8.012176,-0.028093126,8.252739,-0.037364,8.688451,-0.07892764,9.334092,-0.14060672,7.7723026,-0.14982444,8.712513,-0.18580262,8.830913,-0.13438757,7.0090065,-0.12606685,8.223487,-0.07592292,6.692984,-0.14004919,8.747767,-0.21426131,7.517058,-0.11658048,8.178266,-0.17788503,7.177011,-0.15941069,7.215721,-0.21631315,7.592769,-0.21403061,6.867479,-0.2561899,7.092699,-0.32977548,6.094255,-0.2506381
2026-03-04 19:20:15.849681,99.85,44641.91,7.971647262573242,6.737485,0.20827468,6.723198,0.212554,6.5016766,0.10538183,7.947967,0.23508051,7.1096315,0.24166483,6.638439,0.16615927,6.7827587,0.16048563,6.943498,0.22189116,7.880122,0.11898491,6.723668,0.10190706,8.098146,0.06457304,8.66007,-0.0060097766,7.4850817,0.042481966,8.079116,-0.021835389,8.292157,0.07446823,10.218638,0.011654933,7.0551496,0.0027014092,6.397369,0.07765941,7.202476,0.06705024,9.1931505,0.058656096,8.664115,0.07314898,9.196098,0.047610655,7.416621,0.034787115,7.452917,-0.10071881,10.165662,-0.08566987,8.640131,-0.08216686,8.135883,-0.018987674,10.58751,-0.038200516,8.745518,-0.077381805,9.715936,-0.08261683,7.839377,-0.04483616,8.887275,-0.029191423,9.27594,-0.048705213,8.124473,-0.031305596,8.346914,-0.036645766,8.670689,-0.07606295,9.373264,-0.14578238,7.7662263,-0.15911697,8.863387,-0.19652696,8.968519,-0.1333008,7.068,-0.12197347,8.266437,-0.06797691,6.6974845,-0.12130296,8.781896,-0.21509768,7.5523963,-0.10371104,8.234167,-0.18187024,7.2329717,-0.16461514,7.3004346,-0.2110696,7.7148237,-0.22302254,6.8537297,-0.25416505,7.1369967,-0.33799723,6.180081,-0.248268
2026-03-04 19:20:15.854641,99.85,44641.91,7.95909309387207,6.701314,0.22209674,6.848696,0.22464868,6.375445,0.120443024,7.921978,0.2450453,7.024686,0.25634515,6.829292,0.18207067,6.8144026,0.15096651,7.023013,0.21598288,7.857357,0.10466165,6.6493516,0.11230841,8.041222,0.099302195,8.665866,0.020417804,7.5368247,0.070988715,8.032312,0.0075487318,8.449923,0.09115986,10.124303,0.020466657,7.067275,0.014008999,6.25291,0.09649329,7.3566756,0.073081665,9.242768,0.05430804,8.6697855,0.073885664,9.16575,0.033479154,7.307293,0.04777926,7.3614135,-0.05990701,10.068397,-0.050292373,8.705095,-0.051922772,8.134556,-0.0006501255,10.474508,-0.02780308,8.832565,-0.062050816,9.5525,-0.0697156,7.9662504,-0.036315426,8.990667,-0.027007408,9.274586,-0.05607973,8.070697,-0.030462256,8.310673,-0.044030838,8.5151415,-0.058451813,9.351815,-0.116180725,7.7850947,-0.1205757,8.807391,-0.15634565,9.015344,-0.10813939,6.8789015,-0.109248,8.304102,-0.05793719,6.590773,-0.094777316,8.866724,-0.20255712,7.5716896,-0.10554559,8.267639,-0.17796618,7.2055106,-0.16991208,7.345499,-0.21463998,7.563177,-0.19781388,6.862336,-0.21745071,7.07354,-0.29809284,6.1677938,-0.21702635
2026-03-04 19:20:15.874656,102.2,44642.83,7.9343085289001465,6.531367,0.20397973,7.0596232,0.19256523,6.091146,0.07191843,8.167235,0.2083141,6.684533,0.22165439,6.9256105,0.16571243,6.77717,0.13167393,6.926725,0.19100279,7.9414225,0.09039308,6.3274426,0.10541757,7.9090877,0.0738602,8.67865,0.00281234,7.5555296,0.05609407,8.092507,-0.013073999,8.853468,0.07445372,9.75835,0.00078872533,7.3553424,-0.014541388,5.966773,0.072082005,7.5272603,0.06794208,9.197168,0.042226065,8.661709,0.06343418,9.221906,0.019101063,7.0884356,0.052567486,7.233268,-0.08115406,10.122075,-0.06494861,8.8421335,-0.05650586,8.46262,-0.019470815,10.107974,-0.03681767,9.096607,-0.0766787,9.251253,-0.08665278,8.199153,-0.039134756,8.773891,-0.03172125,9.225212,-0.051079944,7.9666533,-0.036709797,8.460454,-0.046702042,8.188445,-0.06003937,9.235079,-0.12632875,7.8092895,-0.12481719,8.805692,-0.16682033,9.374378,-0.12362,6.534046,-0.108075604,8.4947195,-0.06546122,6.344087,-0.109853245,9.067326,-0.19665319,7.4446197,-0.09788223,8.313201,-0.17635083,7.0917335,-0.1499807,7.5279746,-0.20644839,7.266155,-0.18800062,6.6901264,-0.2173894,7.0609183,-0.30058575,6.29651,-0.21452422
2026-03-04 19:20:15.879714,102.2,44642.83,7.944931983947754,6.655914,0.2098167,6.8605533,0.22500826,6.3187294,0.10901226,7.9560795,0.24060674,6.9097724,0.24865247,6.805903,0.18440826,6.80935,0.15944359,6.9879866,0.2092407,7.791786,0.1212446,6.589777,0.09799973,8.100652,0.070421346,8.643279,-0.009578764,7.4978337,0.041546773,7.9545674,-0.02070721,8.396856,0.08480538,10.08295,0.018416077,7.1757503,0.011710861,6.1903653,0.08373591,7.4056506,0.07344943,9.242484,0.062126067,8.6812935,0.067653224,9.077378,0.04432136,7.29568,0.025146464,7.458176,-0.0991255,10.091502,-0.08412345,8.696353,-0.089147106,8.101932,-0.01816843,10.414066,-0.034444325,8.889894,-0.063980006,9.481599,-0.07885767,8.098869,-0.04109214,8.917305,-0.02282151,9.230136,-0.056288343,8.075024,-0.034820992,8.220208,-0.03352729,8.519633,-0.0881512,9.370711,-0.15328206,7.7720313,-0.16496675,8.693454,-0.19391565,8.977136,-0.13423811,6.889874,-0.11179841,8.423312,-0.06151657,6.5246973,-0.117341325,8.924389,-0.21705559,7.569486,-0.106341325,8.195331,-0.18648593,7.2397594,-0.18089662,7.229967,-0.20313969,7.5500746,-0.2262047,6.953242,-0.26515427,7.067344,-0.3574072,6.130382,-0.2508703
2026-03-04 19:20:15.884731,102.2,44642.83,7.921153545379639,6.5886865,0.18057358,6.8092346,0.207162,6.2458935,0.10122707,7.9612803,0.22188185,6.938001,0.23408696,6.962807,0.15932043,6.8369803,0.17390257,7.021453,0.21289782,7.59707,0.12570491,6.5970044,0.08185165,8.194039,0.038423367,8.632544,-0.036686506,7.4230003,0.015423946,7.8292418,-0.06460192,8.306408,0.059710033,10.049687,0.0064481986,7.2164574,-0.013241599,6.170602,0.061893966,7.3824906,0.05678065,9.27807,0.06813844,8.654046,0.07513738,8.970244,0.04113913,7.285189,0.018360564,7.4714656,-0.12934674,10.003617,-0.11362556,8.5733,-0.103381574,7.963909,-0.03273555,10.381517,-0.051669687,8.985398,-0.086601526,9.441999,-0.10249964,8.019075,-0.06516703,9.049459,-0.025825754,9.138249,-0.05192194,8.21226,-0.02331558,8.064787,-0.03589835,8.538718,-0.08918376,9.427837,-0.17528416,7.7495623,-0.18738432,8.634524,-0.22449484,8.906453,-0.15196191,6.906321,-0.14002928,8.436669,-0.09224478,6.505148,-0.13617823,8.881565,-0.22576106,7.6601844,-0.10483408,8.065809,-0.181185,7.277135,-0.17431097,7.093867,-0.21417177,7.5301566,-0.24247308,6.952251,-0.28242597,6.9704475,-0.38477743,6.1078973,-0.28589857
2026-03-04 19:20:15.889700,115.96,44645.0,7.930560111999512,6.6254272,0.21500507,6.948156,0.20920369,6.2080812,0.09416786,8.06922,0.22978175,6.757931,0.23422237,6.8303523,0.16877075,6.7489724,0.14767069,7.0046606,0.1982027,7.8450265,0.09858398,6.444503,0.10450182,7.9404383,0.08120592,8.649214,0.011693667,7.5136714,0.06007673,8.013705,-0.004491307,8.664261,0.080414236,9.9169855,0.012120205,7.3001404,0.008269112,6.0708513,0.08288934,7.399554,0.07040999,9.144705,0.052273326,8.664126,0.067478426,9.168108,0.028855434,7.121772,0.04599758,7.240035,-0.07537261,10.079817,-0.060841862,8.778422,-0.06146384,8.339577,-0.011395125,10.276114,-0.03472924,8.979487,-0.059337247,9.338187,-0.075902306,8.075426,-0.040291537,8.797712,-0.03683533,9.256299,-0.048929635,8.074406,-0.03727206,8.351712,-0.04222538,8.37435,-0.06325604,9.236781,-0.120551094,7.7612233,-0.12920003,8.836714,-0.16017328,9.239456,-0.11633994,6.696268,-0.10482284,8.472858,-0.05449247,6.4422374,-0.09737658,8.932183,-0.20076402,7.46319,-0.10013869,8.270728,-0.17647178,7.1817956,-0.163977,7.3787417,-0.20719242,7.405116,-0.19502407,6.7973943,-0.21811706,7.0413036,-0.3027243,6.2217526,-0.22851862
2026-03-04 19:20:15.894715,174.13,44648.48,7.946619033813477,6.631377,0.2588807,6.956709,0.25217137,6.323786,0.14374028,7.9466033,0.2646664,6.872506,0.26521367,6.8905067,0.19619511,6.822017,0.15762568,7.0311437,0.200462,7.871079,0.11381935,6.5919266,0.13330348,8.006268,0.13598603,8.635437,0.058097202,7.542943,0.11608886,7.998527,0.04929836,8.588169,0.1019204,10.061778,0.044561327,7.099304,0.044187088,6.114336,0.10577131,7.409539,0.08827181,9.220976,0.05635958,8.685901,0.062595345,9.179333,0.03499139,7.2381115,0.066393234,7.2968583,-0.02215737,10.054564,-0.021992415,8.751528,-0.024543298,8.27513,-0.0116340555,10.383157,-0.013411273,8.938138,-0.046536583,9.4278555,-0.06227435,7.9723806,-0.016028127,8.932865,-0.035554055,9.199848,-0.05858489,8.083038,-0.047508046,8.313528,-0.05528779,8.4242935,-0.048959963,9.285431,-0.08020441,7.770681,-0.09108373,8.768104,-0.124380946,9.1102705,-0.10978748,6.8073754,-0.10146832,8.346065,-0.04547771,6.517356,-0.082371555,8.870073,-0.19140148,7.516447,-0.12799704,8.269394,-0.18835934,7.245599,-0.18376091,7.379228,-0.22320917,7.5275035,-0.18893139,6.8207293,-0.19077425,7.037571,-0.27114177,6.180889,-0.20143841
