WIFI_Timestamp,Aligned_ECG,Aligned_Breath,WIFI_Mean_Mag,CSI_Mag_0,CSI_Phase_0,CSI_Mag_1,CSI_Phase_1,CSI_Mag_2,CSI_Phase_2,CSI_Mag_3,CSI_Phase_3,CSI_Mag_4,CSI_Phase_4,CSI_Mag_5,CSI_Phase_5,CSI_Mag_6,CSI_Phase_6,CSI_Mag_7,CSI_Phase_7,CSI_Mag_8,CSI_Phase_8,CSI_Mag_9,CSI_Phase_9,CSI_Mag_10,CSI_Phase_10,CSI_Mag_11,CSI_Phase_11,CSI_Mag_12,CSI_Phase_12,CSI_Mag_13,CSI_Phase_13,CSI_Mag_14,CSI_Phase_14,CSI_Mag_15,CSI_Phase_15,CSI_Mag_16,CSI_Phase_16,CSI_Mag_17,CSI_Phase_17,CSI_Mag_18,CSI_Phase_18,CSI_Mag_19,CSI_Phase_19,CSI_Mag_20,CSI_Phase_20,CSI_Mag_21,CSI_Phase_21,CSI_Mag_22,CSI_Phase_22,CSI_Mag_23,CSI_Phase_23,CSI_Mag_24,CSI_Phase_24,CSI_Mag_25,CSI_Phase_25,CSI_Mag_26,CSI_Phase_26,CSI_Mag_27,CSI_Phase_27,CSI_Mag_28,CSI_Phase_28,CSI_Mag_29,CSI_Phase_29,CSI_Mag_30,CSI_Phase_30,CSI_Mag_31,CSI_Phase_31,CSI_Mag_32,CSI_Phase_32,CSI_Mag_33,CSI_Phase_33,CSI_Mag_34,CSI_Phase_34,CSI_Mag_35,CSI_Phase_35,CSI_Mag_36,CSI_Phase_36,CSI_Mag_37,CSI_Phase_37,CSI_Mag_38,CSI_Phase_38,CSI_Mag_39,CSI_Phase_39,CSI_Mag_40,CSI_Phase_40,CSI_Mag_41,CSI_Phase_41,CSI_Mag_42,CSI_Phase_42,CSI_Mag_43,CSI_Phase_43,CSI_Mag_44,CSI_Phase_44,CSI_Mag_45,CSI_Phase_45,CSI_Mag_46,CSI_Phase_46,CSI_Mag_47,CSI_Phase_47,CSI_Mag_48,CSI_Phase_48,CSI_Mag_49,CSI_Phase_49,CSI_Mag_50,CSI_Phase_50,CSI_Mag_51,CSI_Phase_51
2026-03-04 16:16:22.2244,127.84,143074.41,6.356323719024658,5.085994,0.26000333,5.2904305,0.21310657,5.362161,0.19219734,5.918127,0.17706296,5.1132703,0.17516309,5.559895,0.1714659,5.879869,0.15276505,5.82781,0.14719872,6.375702,0.12555557,5.5717926,0.09460325,6.1601396,0.09389078,6.8353763,0.07604236,5.9770923,0.07360858,6.202365,0.07454564,6.6892796,0.0658443,8.004531,0.04411316,5.4634705,0.04912648,4.8773136,0.08549435,6.0797668,0.054566957,7.607585,0.03771943,7.2435403,0.04254337,7.3653026,0.023306334,6.085595,0.056791212,5.7943053,0.016439078,8.099729,-0.00539091,6.79306,0.0009910623,6.410089,-0.002830906,8.362444,-0.0051068896,7.007897,-0.028254053,7.4430537,-0.03439537,6.5472035,-0.013485052,7.3716393,-0.03700629,7.4493246,-0.04285269,6.7247143,-0.037496433,6.6797624,-0.03857663,7.184318,-0.015422097,7.4581366,-0.059000723,6.330827,-0.050225865,7.012438,-0.06549544,7.105249,-0.07090464,5.3751564,-0.09941705,6.758651,-0.08887659,5.6211023,-0.12492892,6.722392,-0.11455058,5.718509,-0.12347128,6.438546,-0.12871857,5.651635,-0.16287172,5.4426484,-0.16729204,5.807223,-0.21077776,5.86078,-0.18394546,5.5119057,-0.21754672,5.2697034,-0.21432284
2026-03-04 16:16:22.2295,127.84,143074.41,6.34545373916626,5.1015167,0.26883057,5.2690635,0.22330746,5.3863177,0.19816454,5.8971105,0.18560702,5.1349106,0.1750543,5.5338416,0.17250891,5.871769,0.15025254,5.8156567,0.15274543,6.3264213,0.13075808,5.531591,0.10209022,6.205398,0.1011908,6.803037,0.08741446,5.9762316,0.08408779,6.2098694,0.079233974,6.6500115,0.07035381,8.032283,0.053376876,5.41749,0.05498237,4.8257565,0.0957468,6.091143,0.059460074,7.5924816,0.038006898,7.277667,0.046324134,7.291344,0.024789747,6.012208,0.06372187,5.8643165,0.021928873,8.020278,0.0054218546,6.8306856,0.0104456,6.356564,-0.0023666103,8.404879,-0.0048641902,6.986169,-0.02513246,7.420259,-0.028168522,6.516576,-0.011889716,7.3766737,-0.03557844,7.432612,-0.047403015,6.6928086,-0.03244213,6.6075897,-0.045096077,7.1385403,-0.01147013,7.473565,-0.04584629,6.362098,-0.033437945,7.0442433,-0.059959613,7.059942,-0.06580381,5.404537,-0.10054587,6.7249746,-0.08707398,5.5987496,-0.11293431,6.681564,-0.11239486,5.7732515,-0.1240024,6.4370365,-0.124310374,5.6463027,-0.15760544,5.389157,-0.16874395,5.8147717,-0.20216423,5.8754997,-0.17837137,5.5007687,-0.20150182,5.276118,-0.21727268
2026-03-04 16:16:22.2395,127.98,143073.44,6.3412604331970215,5.0980816,0.27617508,5.1820593,0.2261183,5.42011,0.21421508,5.8225594,0.1971785,5.1497493,0.18833539,5.5543075,0.18425159,5.856223,0.16225028,5.852766,0.15470499,6.2882957,0.1364595,5.6547084,0.09975678,6.2142496,0.10758817,6.8205833,0.096188,5.994155,0.092278756,6.1217065,0.09147778,6.512951,0.071727596,8.111088,0.05689292,5.398317,0.063808404,4.8971863,0.099048235,6.0408916,0.062013008,7.626952,0.042790625,7.3072596,0.040755652,7.2602625,0.0283372,6.1156826,0.058050863,5.8493567,0.029802453,8.009857,0.009198503,6.7517295,0.0048020566,6.1862383,-0.0039805146,8.460406,0.0021137227,6.907788,-0.012329714,7.4420624,-0.023772366,6.4437294,-0.0045905155,7.4409966,-0.03198806,7.3734,-0.048420023,6.7442317,-0.0402957,6.5561953,-0.05075619,7.306129,-0.011898206,7.5049243,-0.04037957,6.345529,-0.036156062,6.978451,-0.053692475,6.9480996,-0.06467554,5.527653,-0.09087032,6.6796255,-0.07839044,5.636691,-0.11805185,6.5966864,-0.10666832,5.8041754,-0.13000134,6.3881884,-0.13183782,5.700774,-0.17400974,5.3264947,-0.16986714,5.8972645,-0.20770472,5.91591,-0.18093736,5.4759736,-0.2124475,5.2467847,-0.21606827
2026-03-04 16:16:22.2595,125.87,143071.45,6.347243785858154,5.109338,0.24837606,5.268648,0.21073526,5.3594093,0.18979236,5.917979,0.17561089,5.15159,0.1776802,5.4951158,0.16281943,5.8633842,0.154367,5.768779,0.1435328,6.403249,0.12926435,5.5616097,0.07929264,6.107882,0.08044561,6.8385286,0.06506769,5.9833665,0.055099536,6.2777705,0.053608503,6.6672354,0.063578136,7.985162,0.042473108,5.443971,0.046101265,4.9149046,0.0930297,6.037024,0.049056873,7.5667515,0.04149265,7.276135,0.049272258,7.3195367,0.024993684,6.1164074,0.050405234,5.754169,0.009521307,8.0590105,-0.0073891403,6.8285437,-0.009051505,6.421126,-0.0047403923,8.364942,-0.011452794,6.937347,-0.025890084,7.5090685,-0.02825742,6.486251,-0.0200047,7.318433,-0.034706194,7.471365,-0.039617553,6.6687536,-0.038022686,6.7102413,-0.036361516,7.1925554,-0.024628155,7.3474345,-0.0603694,6.3818984,-0.062796205,7.020589,-0.08282492,7.084453,-0.070340954,5.368024,-0.08864197,6.7409544,-0.08021353,5.702237,-0.120594405,6.6274176,-0.117005356,5.6785226,-0.11708654,6.450181,-0.1274262,5.6138473,-0.16258633,5.4662976,-0.16378024,5.8187075,-0.2129993,5.8289175,-0.188284,5.52445,-0.22292992,5.247192,-0.21719202
2026-03-04 16:16:22.2644,122.68,143070.62,6.342991828918457,5.060378,0.24914584,5.3011928,0.21472926,5.338893,0.18941055,5.961475,0.17139177,5.093479,0.1768927,5.513783,0.15930521,5.8612227,0.139477,5.7513733,0.1470905,6.4300046,0.11404147,5.4891343,0.08614786,6.0940113,0.10168302,6.82345,0.08179678,6.021125,0.07986642,6.301045,0.07607126,6.73346,0.067966856,7.9186707,0.037517916,5.4791265,0.04883061,4.8791566,0.09708433,6.067559,0.049872566,7.548078,0.03246736,7.218663,0.047925036,7.351681,0.018571818,6.011403,0.062904105,5.760788,0.029710522,8.111073,0.0075498424,6.870316,0.014670386,6.477594,0.008134894,8.293673,-0.008042963,6.9772696,-0.01827774,7.4230804,-0.018774169,6.524874,-0.016705949,7.2839313,-0.037203357,7.4179993,-0.037282415,6.647513,-0.03630312,6.774964,-0.044588555,7.1648574,-0.015825247,7.3715324,-0.036467705,6.3807464,-0.040090136,7.0294495,-0.05348289,7.1735053,-0.054937117,5.3058877,-0.088550255,6.7378125,-0.076533906,5.5977774,-0.1024827,6.680081,-0.11073948,5.679823,-0.11329446,6.476588,-0.11488665,5.595669,-0.15126212,5.4825053,-0.16346827,5.7543178,-0.1925727,5.809407,-0.1609199,5.4877877,-0.19994113,5.296389,-0.19255197
2026-03-04 16:16:22.2695,122.68,143070.62,6.3480424880981445,5.0778646,0.25984833,5.3097734,0.21984605,5.3522677,0.20222396,5.9105854,0.1836375,5.0793376,0.18197149,5.5402436,0.16939662,5.8349924,0.14952327,5.7837257,0.15465997,6.324991,0.12897334,5.5519137,0.09401428,6.1526594,0.10044125,6.824329,0.08838655,6.048538,0.07719988,6.237895,0.08234769,6.712034,0.073183805,8.005145,0.050693437,5.441602,0.050692637,4.817634,0.09998302,6.06431,0.052903388,7.5481133,0.03897503,7.2729154,0.05028927,7.3066344,0.02702868,6.046474,0.06102207,5.80752,0.029835302,8.089569,0.009695241,6.8863153,0.008301077,6.3721104,0.003227075,8.39572,-0.003749377,6.9807673,-0.016169744,7.402883,-0.023816282,6.5202036,-0.009231139,7.3583274,-0.036010496,7.414856,-0.042034347,6.722984,-0.038663723,6.688586,-0.04660759,7.177244,-0.016344583,7.4297605,-0.04327556,6.3747835,-0.039093588,7.052457,-0.058580518,7.0981026,-0.064072475,5.364462,-0.08703803,6.7034326,-0.076065265,5.6229076,-0.10621985,6.689851,-0.10908381,5.714925,-0.117727764,6.4828577,-0.121758215,5.649542,-0.16295324,5.421108,-0.16767995,5.79871,-0.20124412,5.860288,-0.1741264,5.490832,-0.20724803,5.2831545,-0.20821455
2026-03-04 16:16:22.2745,120.92,143070.66,6.342837810516357,5.1030707,0.25353646,5.240284,0.2124449,5.3868546,0.19409393,5.8959064,0.16926095,5.1286335,0.17289512,5.5544925,0.17163993,5.92164,0.14047635,5.7759485,0.14062874,6.310046,0.117259175,5.547197,0.09385669,6.129323,0.09770609,6.84241,0.08300594,6.01286,0.07791466,6.219452,0.07800512,6.627217,0.06693344,8.006184,0.047540218,5.409001,0.047725298,4.897762,0.08664631,6.0536275,0.052052874,7.6673374,0.035349984,7.282609,0.041160833,7.3092484,0.015682304,6.016699,0.05406852,5.791041,0.025306173,8.047558,0.004473142,6.840641,0.006207473,6.3346386,-0.0028395674,8.3422165,-0.0088387355,6.907228,-0.022991791,7.487172,-0.034492306,6.5353365,-0.009805177,7.4201136,-0.036209468,7.502579,-0.046685096,6.636104,-0.044318125,6.631819,-0.041701164,7.164669,-0.007960104,7.410461,-0.04076546,6.376217,-0.03534442,6.9831395,-0.05215429,7.0612392,-0.05913087,5.382731,-0.09306258,6.7003865,-0.0791649,5.6519947,-0.12140838,6.6900268,-0.10356167,5.751758,-0.12404319,6.483449,-0.124104686,5.5839987,-0.15635815,5.400656,-0.16764517,5.772733,-0.19377701,5.8666987,-0.17006657,5.4999456,-0.20277534,5.233255,-0.20203558
2026-03-04 16:16:22.2795,120.92,143070.66,6.351008892059326,5.0403275,0.24469395,5.3434653,0.20664471,5.3214498,0.17794922,5.973337,0.16502774,5.0439887,0.1710585,5.5995965,0.14861035,5.935058,0.1392647,5.750466,0.14376497,6.408149,0.11790586,5.3963013,0.08313258,6.1070876,0.0855797,6.815376,0.07476447,6.0292835,0.06615,6.2916985,0.062450085,6.820815,0.06262646,7.8790593,0.03832245,5.5182023,0.038111445,4.80729,0.081851244,6.1341724,0.04334857,7.643104,0.03639083,7.2707486,0.04851446,7.3124743,0.016083186,5.908729,0.056386895,5.7899194,0.012750131,8.083191,0.0016576239,6.957328,-0.0007390902,6.5496097,-0.00085567345,8.209638,-0.010108244,7.0146337,-0.029201958,7.3888073,-0.03484926,6.6838613,-0.013851266,7.397258,-0.03988902,7.4885645,-0.03600845,6.591743,-0.04063766,6.7783947,-0.040823177,7.0100074,-0.0149672255,7.405624,-0.048536193,6.3700643,-0.047751646,7.072648,-0.070478834,7.2314076,-0.06728077,5.21051,-0.089512035,6.755887,-0.07793588,5.5793166,-0.114490725,6.7960224,-0.11592499,5.669201,-0.11311916,6.5317326,-0.11854408,5.5393624,-0.15178777,5.5223107,-0.1648578,5.667757,-0.19511786,5.8094635,-0.17369339,5.475045,-0.20279592,5.322955,-0.20917596
2026-03-04 16:16:22.2849,120.92,143070.66,6.35196590423584,5.1387987,0.26455593,5.2305503,0.22952664,5.420237,0.20309071,5.8632555,0.18125738,5.2131414,0.18587218,5.4647055,0.17185521,5.8372626,0.15020023,5.8207045,0.15307271,6.3157387,0.12062163,5.6510415,0.107113644,6.1290045,0.11751286,6.85987,0.09726814,5.972945,0.09111219,6.2286572,0.0897811,6.583074,0.08076447,8.068848,0.054451436,5.423066,0.055752113,4.9319487,0.10626374,5.965116,0.052797146,7.5874805,0.038951207,7.272104,0.052135553,7.3184752,0.02292995,6.161077,0.06897485,5.7807207,0.03933517,8.090421,0.0145072825,6.7750707,0.01353943,6.3017135,0.0036963832,8.457448,0.0011175227,6.9320526,-0.009041757,7.5203185,-0.02176464,6.389224,-0.012170099,7.361572,-0.029965658,7.3892055,-0.043292098,6.7530684,-0.038080826,6.69773,-0.049306747,7.3058505,-0.009176837,7.4426675,-0.028316448,6.3818564,-0.031641215,6.991344,-0.051328607,7.0044994,-0.05208734,5.499396,-0.097617134,6.685299,-0.0828352,5.6759295,-0.10623628,6.571695,-0.108029865,5.73421,-0.12533931,6.425524,-0.122394614,5.688196,-0.16070543,5.4276457,-0.1692394,5.932522,-0.1986612,5.8524446,-0.16479552,5.5348954,-0.20187053,5.242624,-0.20380874
2026-03-04 16:16:22.2952,120.67,143074.67,6.3447771072387695,5.09905,0.25132385,5.31147,0.21326414,5.35896,0.18756358,5.9370947,0.17182587,5.095658,0.17279096,5.5153313,0.16640544,5.7969456,0.1544708,5.796285,0.15473649,6.4075346,0.11842186,5.593879,0.1002077,6.1298637,0.09044677,6.8547378,0.07434704,5.9566627,0.06647703,6.273679,0.063548736,6.6952314,0.06842754,8.02379,0.04054319,5.479728,0.03960735,4.857495,0.075762026,6.0004234,0.0437469,7.529194,0.042042747,7.2713184,0.050020147,7.3834085,0.013522556,6.0672736,0.06136648,5.763485,0.013639978,8.07146,-0.011255149,6.788212,-0.0017564215,6.410117,-0.005984456,8.424965,-0.016657194,6.994371,-0.028592223,7.421954,-0.040262517,6.449945,-0.021164302,7.320387,-0.03555113,7.3734546,-0.043950453,6.703392,-0.040233526,6.6784983,-0.051237866,7.1979284,-0.015805883,7.349654,-0.06371199,6.3538017,-0.06284199,7.036791,-0.07186494,7.1300817,-0.069140814,5.390635,-0.108476594,6.7756658,-0.09605112,5.627858,-0.1258346,6.611835,-0.11957943,5.6637883,-0.11875183,6.425456,-0.12612529,5.6598244,-0.160775,5.4393845,-0.17445801,5.8413725,-0.20612608,5.795799,-0.19171606,5.520028,-0.2195279,5.273248,-0.22426933
2026-03-04 16:16:22.2998,125.82,143077.7,6.3425421714782715,5.091691,0.24757436,5.2273903,0.20700094,5.369859,0.19209087,5.86216,0.1771606,5.1860332,0.17078318,5.5538664,0.16480395,5.8407454,0.16015728,5.8126626,0.16010997,6.3172913,0.13682063,5.577198,0.09565073,6.154845,0.080526784,6.839811,0.06634944,5.9689465,0.06511322,6.220533,0.056897506,6.5797095,0.06664494,8.061694,0.042405114,5.4153495,0.0466271,4.889463,0.07670539,6.021107,0.045571283,7.6053424,0.041430205,7.292547,0.050560277,7.29022,0.024790827,6.082884,0.05934547,5.7577553,-0.0053834296,8.018099,-0.008682194,6.777837,-0.004016342,6.310361,-0.005918296,8.442709,-0.01434884,6.9835563,-0.03375331,7.4553537,-0.045083746,6.4267707,-0.019869234,7.404264,-0.030499434,7.3766494,-0.04310922,6.7314224,-0.032663025,6.656882,-0.04330874,7.2421756,-0.022273207,7.456085,-0.066493295,6.3824024,-0.060564015,6.971883,-0.07774248,7.0288277,-0.07618904,5.4354253,-0.114569575,6.7381935,-0.10029667,5.608409,-0.13170746,6.6077733,-0.12456929,5.750946,-0.1281534,6.4036818,-0.123163015,5.666985,-0.16096635,5.4123225,-0.16557065,5.875336,-0.2099827,5.903422,-0.20767291,5.49976,-0.23200518,5.2255826,-0.23333721
2026-03-04 16:16:22.3095,126.25,143080.27,6.316388130187988,5.0704317,0.24901326,5.2645297,0.21598431,5.283063,0.19922607,5.951256,0.17941688,5.0827317,0.18174507,5.541993,0.1653013,5.8445563,0.15226078,5.770864,0.13951334,6.2835593,0.12445563,5.4965224,0.092311114,6.0971026,0.099190146,6.8497043,0.07092448,5.935717,0.065430835,6.188144,0.068187326,6.6607327,0.06485705,7.9240446,0.047351405,5.503017,0.053097244,4.799125,0.09332692,6.059117,0.047313657,7.571938,0.038911678,7.2321944,0.047526296,7.279712,0.020971943,5.998161,0.053188022,5.7086387,0.014082794,8.021128,-0.00022529172,6.755788,0.00037550516,6.3512506,0.0027500985,8.302395,-0.009008933,7.0456305,-0.020672994,7.355326,-0.03305158,6.4681416,-0.017927632,7.374903,-0.03361037,7.390432,-0.043334488,6.662735,-0.03806484,6.615583,-0.04733043,7.1396327,-0.018738948,7.37636,-0.050307337,6.342102,-0.052735798,6.9728737,-0.06603295,7.0799675,-0.06583092,5.3076034,-0.100789465,6.776222,-0.08125262,5.5388827,-0.10811483,6.669354,-0.111668654,5.7288055,-0.12199391,6.4054937,-0.12471652,5.6370673,-0.15788823,5.3983693,-0.16176412,5.7852564,-0.20476958,5.7802052,-0.1787399,5.510317,-0.21245377,5.2635207,-0.21816151
2026-03-04 16:16:22.3144,124.95,143080.81,6.349326133728027,5.1017585,0.25298995,5.276028,0.21276276,5.3539243,0.18940799,5.973793,0.17215413,5.0873623,0.17471693,5.539571,0.16687274,5.8588705,0.14313993,5.7582226,0.14875437,6.3695245,0.12024223,5.579666,0.09085108,6.1030006,0.09358596,6.873132,0.072370745,5.979204,0.07205434,6.2629128,0.07427736,6.6982946,0.065852396,7.976077,0.043348387,5.476982,0.046923175,4.905374,0.09598881,6.055323,0.054970108,7.588012,0.037592586,7.250968,0.049486246,7.3359594,0.021735346,6.0781693,0.06122985,5.7363305,0.020104948,8.10681,0.0010397643,6.8077154,0.0028597368,6.3680325,0.0010690782,8.361776,-0.0051994664,7.0207415,-0.023310833,7.497709,-0.029112421,6.5164437,-0.010476091,7.312737,-0.034132913,7.429999,-0.046701994,6.701384,-0.03825011,6.70263,-0.040260352,7.202459,-0.01637515,7.3961916,-0.048564043,6.3874316,-0.04417532,6.9934077,-0.06476301,7.118622,-0.0651857,5.3570976,-0.08712293,6.764277,-0.08208811,5.6468854,-0.11752214,6.654784,-0.10798065,5.65426,-0.111178376,6.45627,-0.1256783,5.609129,-0.15364638,5.4719696,-0.15800193,5.8263197,-0.20275813,5.830377,-0.17600603,5.5174866,-0.20786129,5.2335362,-0.21070723
2026-03-04 16:16:22.3195,121.15,143082.12,6.343510627746582,5.0882516,0.26870152,5.3254795,0.21599278,5.3845496,0.19383551,5.878203,0.1782814,5.0832357,0.18488005,5.5006776,0.1778393,5.826446,0.15271948,5.7950244,0.1474734,6.460793,0.122875236,5.532844,0.09788338,6.090944,0.10082574,6.846705,0.08536096,5.98766,0.08042883,6.2779303,0.07907146,6.77981,0.07174546,7.9938188,0.046715874,5.4117017,0.052827165,4.86433,0.09985965,6.0335207,0.053161092,7.539289,0.03609692,7.285636,0.044691537,7.3935637,0.019841209,6.061019,0.054859757,5.7437778,0.02788114,8.078404,0.0051748757,6.82636,0.010702078,6.442159,0.0034425384,8.382904,-0.007126548,6.94237,-0.018082974,7.4042215,-0.025451891,6.413985,-0.01218909,7.304079,-0.038445495,7.4248476,-0.047402784,6.677956,-0.042946223,6.791379,-0.04720463,7.1536674,-0.011092314,7.3586984,-0.044481024,6.359203,-0.0450537,7.0774183,-0.05547409,7.198612,-0.060891062,5.3417196,-0.09102624,6.6829114,-0.08073913,5.6332626,-0.119894266,6.595172,-0.11093513,5.629041,-0.12172877,6.439501,-0.1288513,5.6036453,-0.1601058,5.5126185,-0.17159976,5.7726502,-0.19892919,5.8077602,-0.16950993,5.514337,-0.20641929,5.3084526,-0.2030199
2026-03-04 16:16:22.3297,119.18,143082.77,6.352450847625732,5.0830784,0.26170602,5.316163,0.21142581,5.3175597,0.19116527,5.990811,0.17493524,5.039518,0.17653981,5.6194386,0.16827364,5.865857,0.14139643,5.825661,0.14264801,6.3744326,0.11887358,5.511127,0.08844635,6.0980997,0.095080964,6.8424125,0.07919019,6.0101986,0.071423106,6.2020507,0.0728718,6.7680902,0.064070635,7.9645867,0.04329643,5.533949,0.043246947,4.8293853,0.09030777,6.1286,0.051922567,7.6071563,0.03525752,7.273426,0.044472836,7.3187337,0.021544753,5.9850664,0.05700287,5.759581,0.020694112,8.091627,0.0039086845,6.8623247,0.0065732985,6.453493,-0.0066608507,8.307142,-0.007420594,7.09145,-0.025468087,7.383695,-0.03063516,6.6080317,-0.009675396,7.338692,-0.036719237,7.4337626,-0.04521824,6.677996,-0.0374569,6.6831207,-0.044799596,7.100477,-0.011508498,7.425914,-0.045601673,6.35454,-0.040093273,7.026003,-0.05630738,7.1393375,-0.06565957,5.312302,-0.09208859,6.7929244,-0.07950688,5.5888133,-0.11421249,6.730583,-0.10758255,5.707681,-0.1187654,6.465539,-0.12268023,5.616452,-0.15611829,5.4361053,-0.16341007,5.771813,-0.19358598,5.8303204,-0.17073742,5.542932,-0.20166926,5.289381,-0.20808563
2026-03-04 16:16:22.3346,116.2,143084.73,6.326103210449219,5.142854,0.27134317,5.13422,0.23597647,5.4680476,0.21929552,5.7826066,0.20050861,5.2527013,0.2029425,5.4196315,0.17643781,5.841809,0.16503915,5.7938023,0.15448964,6.280138,0.13004057,5.747693,0.09599567,6.186409,0.116515525,6.8316617,0.09477222,5.9322095,0.0888685,6.154761,0.08906482,6.421181,0.08379017,8.140751,0.06448446,5.3308263,0.07244366,4.986404,0.115842655,5.9139066,0.05043247,7.5807285,0.047881342,7.2427373,0.04562467,7.2930217,0.021937069,6.2179112,0.052197326,5.817904,0.030773165,8.01841,0.012464563,6.6890426,0.00652784,6.1717596,0.0054351254,8.521983,-0.001296995,6.783871,-0.01096509,7.532126,-0.015540796,6.307518,-0.018374898,7.36579,-0.035301335,7.356358,-0.048542537,6.701803,-0.04518602,6.5650783,-0.05557291,7.365271,-0.016000036,7.4115515,-0.03169762,6.349135,-0.045412697,6.9454937,-0.05172837,6.8944592,-0.055300057,5.5204678,-0.09293285,6.6159444,-0.073315784,5.710181,-0.10387996,6.53372,-0.110787705,5.7432704,-0.12768178,6.3993506,-0.13002534,5.6948576,-0.16887517,5.3507357,-0.17647211,5.95667,-0.2121804,5.84752,-0.17560114,5.5021954,-0.20858383,5.1888685,-0.21352835
2026-03-04 16:16:22.3400,118.13,143088.8,6.351722717285156,5.0880237,0.2610703,5.3098383,0.21874256,5.35109,0.19393514,5.977847,0.1719603,5.111155,0.17978524,5.5250664,0.17676929,5.820742,0.14541185,5.815218,0.14941607,6.4349637,0.11747238,5.5512624,0.09866582,6.037965,0.10352803,6.8485928,0.096014395,5.988753,0.08021039,6.3134713,0.08541223,6.7560906,0.0712846,7.9525623,0.04792684,5.5240645,0.04932282,4.8918166,0.09286371,6.0263805,0.0613051,7.5314684,0.033692103,7.2675004,0.044088937,7.377828,0.017107038,6.0642557,0.061252378,5.6976132,0.032082617,8.172571,0.016677998,6.836624,0.01133329,6.464888,0.008964583,8.312227,-0.0027768356,7.0183086,-0.017771883,7.4865475,-0.02550046,6.468387,-0.0009092575,7.233033,-0.03182197,7.4330444,-0.04704765,6.6822767,-0.042877708,6.789869,-0.043738794,7.193006,-0.0023491755,7.339372,-0.030327847,6.3892584,-0.026550945,7.0276327,-0.048420526,7.156403,-0.048176534,5.3355813,-0.08504231,6.757653,-0.076483846,5.640054,-0.112106055,6.66083,-0.09509549,5.6408195,-0.109661125,6.4466925,-0.11956042,5.6324615,-0.15610862,5.50001,-0.16243994,5.8079777,-0.18563525,5.7821956,-0.16422796,5.5534554,-0.19010757,5.2648234,-0.19352569
2026-03-04 16:16:22.3452,118.79,143091.59,6.342040061950684,5.136371,0.26197237,5.2120314,0.21648248,5.3743615,0.1986569,5.872865,0.1824183,5.157839,0.17403427,5.5029783,0.16968074,5.8628874,0.15626472,5.799722,0.14983441,6.3428216,0.1297732,5.590455,0.091646135,6.1302686,0.08808495,6.835083,0.0727979,6.013986,0.070748515,6.2118454,0.0716702,6.6570883,0.062310733,8.050387,0.048024546,5.3819494,0.050540008,4.8926744,0.088208504,6.0232577,0.054929104,7.558024,0.040958103,7.278904,0.05183626,7.3318124,0.02994583,6.0670414,0.054737665,5.7993507,0.0077928086,8.039121,-0.002043352,6.775872,-0.0020956772,6.358117,-0.0019325884,8.480399,-0.008253901,6.916922,-0.024661213,7.4434967,-0.034528345,6.417,-0.014047932,7.3600793,-0.02928862,7.4109683,-0.045959763,6.6835623,-0.034189343,6.651673,-0.037848797,7.235926,-0.018328322,7.401939,-0.053506907,6.3568325,-0.05557357,7.056218,-0.070430234,7.050816,-0.07054708,5.413649,-0.0954136,6.664637,-0.08392833,5.6506424,-0.1190595,6.603449,-0.11476153,5.7504478,-0.11620614,6.4731917,-0.120611094,5.6109962,-0.16078204,5.430993,-0.15959476,5.8328314,-0.20838866,5.835724,-0.19024271,5.528906,-0.21102312,5.267675,-0.22134526
2026-03-04 16:16:22.3502,117.95,143094.42,6.35432767868042,5.088788,0.24834904,5.294881,0.20518932,5.3380046,0.18382482,5.970139,0.17230864,5.1147413,0.17371818,5.545192,0.16557935,5.844521,0.14574295,5.7970324,0.15551826,6.4025035,0.12716775,5.5271363,0.08932931,6.0844064,0.08562872,6.877502,0.06462249,5.990594,0.06300841,6.2681713,0.061069787,6.7276945,0.064712115,7.9529357,0.03864062,5.476016,0.037891354,4.875253,0.09555207,6.059347,0.052454356,7.5677924,0.036832783,7.257749,0.050810076,7.3699956,0.022619706,6.031067,0.050768707,5.7660193,6.176493e-05,8.100308,-0.01158125,6.8544507,-0.0039102053,6.439348,-0.0088606505,8.354048,-0.019873785,7.0764637,-0.029992074,7.419077,-0.030501803,6.5364175,-0.02697576,7.3393717,-0.037054595,7.4231734,-0.04437137,6.678711,-0.03224364,6.733798,-0.048191916,7.153863,-0.023850467,7.4009824,-0.057384834,6.3828506,-0.06116275,6.990606,-0.07692554,7.1573434,-0.07211313,5.341642,-0.10166736,6.7733717,-0.09001205,5.62401,-0.11854382,6.6835966,-0.11794528,5.706722,-0.11881515,6.453038,-0.12475402,5.6509256,-0.15338835,5.5043526,-0.16968934,5.816582,-0.21516426,5.81317,-0.19211598,5.5333915,-0.22660552,5.25596,-0.22597606
2026-03-04 16:16:22.3546,117.1,143095.52,6.351235389709473,5.1557355,0.26569986,5.3063474,0.22089137,5.3673096,0.20253679,5.896738,0.18252869,5.1230965,0.17670344,5.472443,0.17430294,5.760018,0.1584402,5.8024116,0.14576072,6.3948665,0.12810884,5.569721,0.10312243,6.0705376,0.10624301,6.8616714,0.091138326,6.003434,0.08587455,6.3204236,0.08385081,6.718457,0.07246302,7.981767,0.050789833,5.4871163,0.05020812,4.899662,0.083419055,5.9940743,0.05069057,7.5531993,0.043917384,7.2470303,0.043716118,7.410492,0.023688108,6.040562,0.06472105,5.728892,0.022365903,8.088541,0.009331388,6.8329287,0.0079919975,6.439203,-0.0018672273,8.404927,-0.0034955998,7.0291386,-0.02380318,7.4534283,-0.03744215,6.4307733,-0.008923029,7.3126235,-0.03986291,7.448971,-0.04297341,6.6956644,-0.045208413,6.7520475,-0.049648277,7.1594067,-0.0080013815,7.3675056,-0.044243272,6.3608418,-0.04031391,7.0940275,-0.063018695,7.1854267,-0.06626131,5.3803983,-0.0944655,6.71702,-0.08812853,5.617399,-0.12740947,6.5966268,-0.11540321,5.683384,-0.13274883,6.499671,-0.13028345,5.6542964,-0.1707239,5.5003963,-0.17282093,5.798748,-0.20204972,5.80716,-0.1795222,5.497237,-0.20112222,5.2904615,-0.21472257
2026-03-04 16:16:22.3596,116.01,143096.36,6.351410865783691,5.066028,0.26697373,5.2888126,0.23096164,5.358164,0.20118919,5.9609528,0.18950547,5.100068,0.18910196,5.60921,0.1730177,5.8707724,0.1514506,5.8140864,0.1477527,6.331371,0.13089064,5.5554557,0.09783886,6.164032,0.104032636,6.805379,0.07820296,5.9745297,0.069786705,6.192594,0.080969386,6.7277403,0.07614143,7.9636664,0.05301725,5.496176,0.059089854,4.846655,0.108366065,6.1406198,0.05908874,7.6031456,0.04031484,7.2481303,0.04785713,7.309842,0.022983365,6.0086293,0.055359192,5.8633237,0.02603498,8.046466,0.0018004813,6.872294,0.002511183,6.368843,0.0068515283,8.368559,0.0012515713,7.01748,-0.014871361,7.4282107,-0.019665781,6.583896,-0.009849493,7.37816,-0.02524167,7.4365177,-0.047562122,6.681993,-0.040992677,6.6378107,-0.03927431,7.1508255,-0.01847093,7.442856,-0.03941692,6.352315,-0.049513105,7.0264893,-0.062803,7.112164,-0.0630444,5.3626113,-0.091602296,6.757116,-0.07000918,5.5888247,-0.10889375,6.7139387,-0.10695685,5.740282,-0.11548746,6.4625454,-0.12742533,5.6197,-0.16418527,5.418372,-0.16288075,5.7845063,-0.2051704,5.838528,-0.17803933,5.502183,-0.21308273,5.280443,-0.21252239
2026-03-04 16:16:22.3646,116.01,143096.36,6.3550615310668945,5.0932393,0.2553421,5.297242,0.2220409,5.3826184,0.19166751,5.94593,0.18010183,5.0887246,0.18010643,5.548255,0.17034979,5.887501,0.154416,5.793441,0.15194364,6.4082,0.12255094,5.5287266,0.08993127,6.133355,0.09292636,6.819168,0.07656636,6.007121,0.06906032,6.249751,0.07767208,6.7114105,0.07250431,7.987216,0.047386926,5.482764,0.053529974,4.8527145,0.09138638,6.090827,0.048415508,7.5799584,0.042297143,7.2932706,0.046038397,7.333595,0.017437968,6.050748,0.05245272,5.807258,0.024025623,8.081586,0.0029874546,6.8336644,-0.0030165543,6.396226,0.0074425396,8.327473,-0.0010325112,7.0023174,-0.018684871,7.4423914,-0.0241463,6.551701,-0.012125046,7.321009,-0.031258386,7.4887667,-0.04790293,6.687814,-0.045381274,6.6832275,-0.04106114,7.1587925,-0.01339166,7.4216995,-0.04909743,6.3816633,-0.054777678,7.041029,-0.06359268,7.1647234,-0.05887419,5.3473535,-0.090104505,6.746127,-0.07717517,5.6506224,-0.112096004,6.7172017,-0.10926928,5.7141943,-0.115106866,6.477377,-0.1252378,5.5950403,-0.16201095,5.4644227,-0.16601734,5.7722106,-0.20329586,5.8348527,-0.17532235,5.510165,-0.20968807,5.276523,-0.20603599
2026-03-04 16:16:22.3696,114.72,143097.12,6.3261942863464355,5.1212344,0.25309038,5.229356,0.21138537,5.390704,0.19293727,5.8419595,0.17938107,5.1539326,0.17199422,5.4342647,0.1721274,5.7806826,0.1508407,5.798391,0.15751086,6.352798,0.12725091,5.632039,0.09006311,6.082662,0.08943523,6.81003,0.07610917,5.9562216,0.06907069,6.261023,0.06625649,6.59178,0.06297133,8.025277,0.043584123,5.396479,0.042256974,4.8997555,0.094393246,5.9726787,0.05316354,7.510023,0.041855898,7.2810507,0.053090677,7.328162,0.021485643,6.117959,0.056514006,5.737377,0.00934438,8.088303,-0.0017100109,6.7368345,-0.004576176,6.3357363,0.000914437,8.445058,-0.012062616,6.903445,-0.029640824,7.4750457,-0.03422709,6.4026904,-0.020996358,7.245844,-0.033057068,7.3871913,-0.04733758,6.7119646,-0.034785356,6.6804023,-0.040841565,7.2342944,-0.01819021,7.358045,-0.057127886,6.3510265,-0.058527164,7.0140934,-0.069799684,7.0443964,-0.07185724,5.413736,-0.10338787,6.6657624,-0.09052304,5.6460066,-0.1233272,6.5364833,-0.11501855,5.6628323,-0.11798405,6.4192915,-0.12431735,5.6743603,-0.15847044,5.4396057,-0.16989063,5.8798532,-0.20520002,5.785009,-0.1943631,5.5180635,-0.22132069,5.200891,-0.21928306
2026-03-04 16:16:22.3746,114.72,143097.12,6.351264476776123,5.1418905,0.28109142,5.240362,0.23307626,5.4050107,0.21545449,5.8443704,0.19266196,5.172612,0.19742319,5.47625,0.17939508,5.8336687,0.15695459,5.8178954,0.15656316,6.4003563,0.12480116,5.5745635,0.103015184,6.1449018,0.11656828,6.816205,0.09050946,6.0199018,0.07759423,6.265837,0.09191815,6.618409,0.09104746,8.06357,0.058710653,5.3705416,0.060746692,4.9265256,0.11896488,5.951623,0.061353054,7.589442,0.043234605,7.275552,0.052867927,7.385038,0.018298155,6.124345,0.0628956,5.7861795,0.03645369,8.048347,0.010891516,6.792724,0.0036451996,6.3685017,0.01270858,8.469722,0.0013543158,6.9393497,-0.009639346,7.5145082,-0.012702934,6.4032235,-0.007771152,7.347565,-0.026609946,7.4889965,-0.050148927,6.697737,-0.04316726,6.7134905,-0.045735214,7.241638,-0.01277675,7.388655,-0.039044853,6.3611016,-0.047817294,7.0385923,-0.051716417,7.0699215,-0.052183665,5.4490857,-0.089174695,6.673876,-0.07273537,5.7083974,-0.10000517,6.568069,-0.10017022,5.6818995,-0.11222085,6.460185,-0.12893102,5.662783,-0.16493592,5.430306,-0.16866294,5.8816695,-0.19876108,5.8448906,-0.16368783,5.5359483,-0.20697531,5.2394867,-0.19999036
2026-03-04 16:16:22.3798,111.1,143097.92,6.332591533660889,5.1031146,0.26950377,5.2754345,0.22528067,5.339241,0.19789855,5.9044733,0.1872946,5.13322,0.18407391,5.5076528,0.17799729,5.816611,0.15357545,5.78979,0.14727028,6.379576,0.12833631,5.603306,0.10597815,6.1140585,0.114356555,6.8547597,0.09311506,5.987036,0.0916765,6.226367,0.084481746,6.623591,0.076186396,7.981174,0.05017551,5.426861,0.05113818,4.8644786,0.09985383,6.0076623,0.054985143,7.553146,0.037100375,7.251665,0.046818204,7.338618,0.02074151,6.045288,0.062703885,5.7445927,0.039882805,8.04634,0.014954609,6.76869,0.015038796,6.3628087,0.002640363,8.38606,-0.0042627812,6.945366,-0.012959789,7.4423094,-0.022547323,6.451394,-0.010918703,7.2628865,-0.035614815,7.377913,-0.048867393,6.6968045,-0.037086286,6.66389,-0.05044562,7.1763825,-0.011720038,7.37874,-0.03294343,6.35993,-0.033105038,6.997447,-0.048460383,7.0658736,-0.060355347,5.4148965,-0.09132955,6.7033553,-0.078783296,5.6365476,-0.10592332,6.6228604,-0.106034905,5.67157,-0.12734413,6.4258056,-0.12602915,5.67972,-0.1582276,5.4813304,-0.16876529,5.8534064,-0.20119072,5.820392,-0.16482419,5.5097175,-0.1957769,5.220642,-0.20218603
2026-03-04 16:16:22.3847,109.54,143097.28,6.30070686340332,5.102381,0.25923803,5.2136207,0.22909802,5.380932,0.20121069,5.8503203,0.18582433,5.13588,0.1887181,5.402818,0.17683695,5.764534,0.15245868,5.746742,0.14978981,6.327421,0.11958062,5.5818644,0.09666975,6.088144,0.10568852,6.7822027,0.0860052,5.9295607,0.0826989,6.2349663,0.07858718,6.5477405,0.08104882,8.014028,0.051825117,5.392755,0.053957872,4.922438,0.10453341,5.9052343,0.05341565,7.445615,0.039187428,7.1970053,0.04262934,7.3080363,0.020607067,6.0919228,0.061494675,5.735185,0.033713654,8.0465,0.0072154794,6.7106667,0.003710202,6.281616,0.0026434723,8.409729,-0.0024438007,6.864149,-0.015048338,7.4661174,-0.01933523,6.372476,-0.009014679,7.247547,-0.03397164,7.3524847,-0.04693697,6.6903324,-0.042233504,6.6628633,-0.045358274,7.211754,-0.017375583,7.3281274,-0.035976406,6.3162956,-0.040062387,6.967481,-0.054541063,7.050677,-0.056389358,5.4200954,-0.09107294,6.6457787,-0.076810345,5.625407,-0.10356308,6.5211983,-0.107740775,5.6542897,-0.12291258,6.3902893,-0.13004598,5.5999045,-0.16090512,5.412596,-0.16449636,5.842201,-0.19444641,5.767542,-0.17196131,5.4835644,-0.20546255,5.193739,-0.20444274
2026-03-04 16:16:22.3896,109.54,143097.28,6.353541851043701,5.1564484,0.27107504,5.25364,0.23187485,5.4289436,0.20715085,5.8810086,0.18843368,5.164357,0.18277797,5.5062075,0.17832229,5.827688,0.15404384,5.811866,0.14328234,6.380989,0.13066758,5.5986295,0.08857735,6.165905,0.10540688,6.81889,0.08640921,6.0166464,0.075622246,6.307332,0.08582192,6.633483,0.075164564,8.04313,0.058006622,5.4113464,0.06434438,4.8933377,0.10335655,5.9910007,0.052073486,7.5261893,0.043145258,7.272505,0.04573292,7.351142,0.021068584,6.074736,0.055124365,5.786005,0.029619705,8.0396385,0.008209214,6.787736,0.005026808,6.334309,-0.0007642271,8.450577,-0.0007376295,6.933617,-0.00949339,7.521009,-0.017398804,6.4301085,-0.006510534,7.3913355,-0.03379988,7.456528,-0.048698682,6.725017,-0.05019396,6.6738987,-0.042595305,7.237756,-0.010507114,7.395541,-0.04271249,6.350432,-0.046834208,7.1179495,-0.053409692,7.0669384,-0.06136232,5.441574,-0.08035828,6.6703625,-0.07133237,5.6558995,-0.107898526,6.612322,-0.10487807,5.730281,-0.119614296,6.470699,-0.13242318,5.6358423,-0.16727097,5.431292,-0.16839778,5.839774,-0.20397602,5.864829,-0.17613028,5.5304255,-0.20792855,5.2870593,-0.20887743
2026-03-04 16:16:22.3949,109.68,143095.72,6.295644760131836,5.1327806,0.26727805,5.1171317,0.23650813,5.443121,0.21396607,5.7198086,0.1919592,5.2150407,0.19673833,5.396833,0.18079798,5.834951,0.16308172,5.7873497,0.15093847,6.279512,0.13448676,5.6794143,0.08408469,6.157089,0.11043435,6.760632,0.091771,6.001277,0.07599344,6.1392407,0.08105071,6.3900623,0.073057085,8.103549,0.055594355,5.2626047,0.062193923,4.975178,0.09770095,5.8584414,0.05515693,7.5311065,0.04372783,7.2385893,0.04779385,7.2137427,0.02791669,6.1161976,0.053523332,5.8246174,0.01826495,7.943785,0.0020046218,6.7191863,0.006961347,6.1034384,0.0016104312,8.518593,0.0010465913,6.7098603,-0.020093484,7.5175686,-0.027668403,6.2407207,-0.015287363,7.3696756,-0.026145918,7.368927,-0.045178022,6.677808,-0.03211157,6.545107,-0.049594834,7.268439,-0.016180085,7.4057555,-0.047174037,6.3382945,-0.050231926,6.9281387,-0.06689633,6.8441324,-0.06465026,5.485899,-0.09447244,6.585598,-0.08174971,5.726166,-0.10943485,6.452408,-0.11420658,5.7188015,-0.12517448,6.4053802,-0.12916929,5.6396036,-0.17228931,5.305234,-0.17264159,5.9096665,-0.20997068,5.852295,-0.18566863,5.4456797,-0.21774606,5.169125,-0.22213139
2026-03-04 16:16:22.4004,109.68,143095.72,6.3507561683654785,5.173506,0.2606633,5.1827583,0.21934183,5.5122147,0.20265727,5.7782884,0.18276118,5.2764177,0.18468598,5.423896,0.16660117,5.8202906,0.16345155,5.854345,0.1605293,6.364725,0.13870175,5.730883,0.09637925,6.189507,0.0988351,6.828244,0.07786512,5.9874706,0.07562976,6.2105055,0.071570285,6.512577,0.07108514,8.189553,0.05068247,5.306197,0.060898118,4.987044,0.08795213,5.891307,0.050065797,7.554052,0.04866376,7.2875524,0.051411282,7.362107,0.030201018,6.2200713,0.06152726,5.841663,0.011876311,8.04722,-0.0031733045,6.7032337,0.003938181,6.275387,0.0015815207,8.605062,-0.009006904,6.826443,-0.022298118,7.5105414,-0.034215253,6.2857556,-0.018555254,7.3773494,-0.03414739,7.3964763,-0.0442083,6.7610025,-0.04225128,6.6677737,-0.04922291,7.3694997,-0.021230862,7.420335,-0.051973555,6.348424,-0.057191376,7.0137224,-0.070630625,6.925128,-0.07201985,5.5637627,-0.108448155,6.646045,-0.09239917,5.73436,-0.1238583,6.476865,-0.12455379,5.7500057,-0.12790267,6.395934,-0.12098617,5.694988,-0.16582276,5.3994675,-0.17593709,5.955962,-0.21448964,5.8560953,-0.19349904,5.5074806,-0.2290309,5.2398,-0.22639687
2026-03-04 16:16:22.4056,109.68,143095.72,6.352849006652832,5.0596795,0.27531645,5.327847,0.22473921,5.3490458,0.20620912,5.953617,0.1880276,5.0656605,0.1902209,5.549046,0.17804934,5.8282137,0.15137452,5.8116813,0.15362166,6.4003987,0.12135376,5.527293,0.09618775,6.120671,0.11267169,6.8374896,0.091584936,6.004829,0.08452417,6.250019,0.08530605,6.75503,0.079243906,7.970434,0.05678233,5.5140367,0.062179644,4.8541617,0.11370156,6.068464,0.059294432,7.5839806,0.03683515,7.3151326,0.05129977,7.3787475,0.018956302,6.018937,0.062090397,5.755833,0.037060842,8.076767,0.013385626,6.819453,0.010055799,6.430952,0.011823353,8.3433275,0.0003804317,7.0184374,-0.010514542,7.4233828,-0.01804338,6.5404744,-0.01704989,7.301086,-0.031362757,7.435807,-0.049285565,6.723498,-0.044533048,6.7406,-0.050655246,7.183805,-0.008932802,7.3925223,-0.033285674,6.357015,-0.044321816,7.034363,-0.044479024,7.163214,-0.051550277,5.3608556,-0.093587264,6.775753,-0.07157557,5.597742,-0.099788375,6.663077,-0.10429768,5.684011,-0.11543145,6.438273,-0.12155819,5.6374097,-0.15957128,5.4578686,-0.1660349,5.7759705,-0.20679744,5.872724,-0.16120252,5.5081306,-0.20598039,5.2913814,-0.2042129
2026-03-04 16:16:22.4107,110.56,143095.19,6.356932640075684,5.11115,0.24678668,5.2562814,0.21347885,5.406179,0.19046037,5.887792,0.16981448,5.141847,0.16414155,5.516615,0.16601744,5.8958497,0.15140104,5.7812934,0.15968949,6.4007325,0.12511432,5.5412626,0.0888083,6.1614017,0.09015599,6.8180223,0.07178659,6.02905,0.06333121,6.2700386,0.064125076,6.640057,0.06628793,7.9954696,0.038699787,5.422921,0.04226646,4.9206195,0.08430659,6.02994,0.047854308,7.662229,0.042103417,7.275467,0.054939438,7.380411,0.021234754,6.019811,0.053841695,5.8392105,0.004525784,8.039485,-0.0052237716,6.8356156,-0.00395224,6.3840938,0.0062964642,8.397477,-0.01729267,6.9511423,-0.03907992,7.472108,-0.04074263,6.478303,-0.01959664,7.4058094,-0.031079732,7.472917,-0.04802944,6.6673055,-0.03649131,6.6778607,-0.045513097,7.199157,-0.017757995,7.4184566,-0.06508117,6.3790994,-0.06197982,7.039217,-0.075545356,7.080452,-0.07367953,5.4081855,-0.112544686,6.6881843,-0.09581028,5.685725,-0.12322905,6.6688943,-0.12243843,5.770034,-0.122466736,6.5158916,-0.1252739,5.606973,-0.15676495,5.4456515,-0.16855162,5.795417,-0.2065994,5.8581667,-0.19715136,5.520451,-0.21905805,5.294797,-0.23150924
2026-03-04 16:16:22.4160,110.56,143095.19,6.355965614318848,5.1170373,0.2768682,5.2848763,0.23301722,5.4411697,0.21107729,5.8678813,0.19411515,5.118887,0.1916208,5.547922,0.17978896,5.8696504,0.1513119,5.799548,0.14231034,6.38401,0.1307991,5.551297,0.08881258,6.1592245,0.118538395,6.792972,0.09778127,6.04339,0.09599466,6.2445664,0.09886462,6.662987,0.07583141,8.051585,0.06480674,5.428549,0.07823212,4.87311,0.105669975,6.064066,0.056770477,7.6500783,0.039574374,7.262149,0.0379189,7.3423114,0.02712051,6.0459476,0.05459693,5.804148,0.043973662,8.029063,0.017713983,6.8505487,0.021165572,6.4027,0.0045831418,8.388057,0.01030184,6.9865108,-0.006203912,7.4808154,-0.012321034,6.5051756,-0.0050295093,7.364515,-0.037298266,7.45799,-0.04911855,6.6954584,-0.04624663,6.668765,-0.04179658,7.1827946,-0.017798286,7.4369035,-0.029515652,6.3658795,-0.030036353,7.0663853,-0.04215451,7.100699,-0.052647233,5.4399743,-0.07410045,6.6754456,-0.06318677,5.6392393,-0.103709206,6.6796207,-0.09917735,5.727069,-0.1228072,6.511399,-0.1254724,5.630293,-0.16568285,5.406076,-0.16871959,5.8026915,-0.20237553,5.8882933,-0.15524916,5.441627,-0.19194227,5.278845,-0.20013352
2026-03-04 16:16:22.4301,120.52,143095.61,6.355071067810059,5.0892005,0.2386046,5.268074,0.20753379,5.355319,0.17585899,5.933793,0.1637321,5.135202,0.16516936,5.581678,0.15537998,5.9049172,0.15229498,5.8121915,0.15535644,6.324072,0.11897572,5.612085,0.090971045,6.1704965,0.08821309,6.864773,0.06821015,5.990833,0.062537156,6.179679,0.053509332,6.6140804,0.059952974,8.04642,0.032469533,5.4698486,0.034129854,4.9152937,0.07836516,6.108152,0.0409446,7.6447005,0.04056395,7.243289,0.051998757,7.2836185,0.02044232,6.0801935,0.05989954,5.827243,0.0023700346,8.07389,-0.007838087,6.784419,-0.0021294532,6.307659,0.00046283982,8.358066,-0.023175782,6.977245,-0.03797283,7.4674954,-0.04184766,6.567503,-0.03313021,7.4324822,-0.041094735,7.400358,-0.0400643,6.7078843,-0.032403514,6.6297917,-0.050677467,7.220504,-0.014829309,7.4939084,-0.06012662,6.383872,-0.06090439,6.954479,-0.07854161,7.0281715,-0.07243363,5.40757,-0.118141755,6.725419,-0.096478954,5.644881,-0.13156871,6.6927733,-0.12654576,5.7661686,-0.122489415,6.443882,-0.11875232,5.6513042,-0.15588668,5.397776,-0.16977412,5.8538494,-0.20737828,5.892672,-0.19601496,5.498217,-0.22258885,5.2462687,-0.22386561
2026-03-04 16:16:22.4399,124.31,143097.56,6.347123146057129,5.090704,0.26981395,5.2448826,0.232365,5.46547,0.21019755,5.841037,0.19675873,5.161786,0.19398868,5.506164,0.18057881,5.8368654,0.15556605,5.844938,0.1481566,6.332081,0.12685528,5.629356,0.09801274,6.213061,0.11151952,6.8067718,0.08859418,6.039834,0.085320085,6.1888475,0.09139969,6.5813293,0.08250007,8.127416,0.059716582,5.4098682,0.064747445,4.9369974,0.118509285,6.0290217,0.06102212,7.596586,0.03843888,7.2860746,0.04649526,7.2838306,0.027566534,6.103008,0.06349474,5.8316145,0.041014336,8.01537,0.007226392,6.776572,0.016087743,6.2878428,0.005583412,8.466121,0.00359378,6.878537,-0.009915042,7.4774494,-0.011603368,6.476424,-0.008774223,7.3828435,-0.026818573,7.4027576,-0.04891233,6.739324,-0.037873056,6.6415663,-0.0486322,7.260233,-0.012130003,7.43084,-0.031894684,6.3531184,-0.03678927,6.9792933,-0.050899267,7.0024643,-0.051430803,5.474416,-0.079525374,6.684359,-0.07585858,5.6967635,-0.1022121,6.6235623,-0.10068474,5.711755,-0.11485792,6.4008784,-0.121989466,5.6521974,-0.16329738,5.369478,-0.16352685,5.8693857,-0.20459093,5.906024,-0.16156837,5.460354,-0.20487544,5.242915,-0.20074674
2026-03-04 16:16:22.4448,124.31,143097.56,6.354826927185059,5.0890646,0.25641853,5.3517623,0.2145549,5.3734097,0.1954521,5.918852,0.17702177,5.1250653,0.17245871,5.534736,0.17269732,5.8268557,0.14839873,5.782721,0.15191871,6.4441824,0.12163072,5.544563,0.09391044,6.107334,0.08941053,6.849957,0.07404966,6.0123124,0.06295127,6.2954826,0.068346106,6.822203,0.066708855,7.9767895,0.04740265,5.467202,0.045832746,4.848505,0.09711429,6.0169835,0.054218896,7.5443797,0.036629718,7.2544527,0.046577938,7.3879075,0.021770934,6.0309944,0.05758152,5.696305,0.019369999,8.120531,0.0019903432,6.8749676,0.0023540715,6.525348,0.0034921595,8.393916,-0.0033833885,7.0000286,-0.018070212,7.418794,-0.026726022,6.4674664,-0.010690517,7.2794766,-0.028908722,7.4197474,-0.048365764,6.681157,-0.04149952,6.8020253,-0.03961339,7.157748,-0.01612852,7.3435745,-0.04958674,6.399827,-0.050632436,7.06124,-0.062366918,7.2133546,-0.06283985,5.2893744,-0.087916486,6.747445,-0.07635224,5.6490726,-0.11111133,6.6001897,-0.10285155,5.644647,-0.1115198,6.4667206,-0.12279325,5.6146345,-0.15533644,5.5194817,-0.16083038,5.814508,-0.20253432,5.7916684,-0.17670983,5.542613,-0.20784326,5.3094034,-0.20812312
2026-03-04 16:16:22.4499,124.31,143097.56,6.343596935272217,5.057395,0.26266876,5.31259,0.22079629,5.3395224,0.19805233,5.9309063,0.181218,5.080221,0.17512527,5.537228,0.17762817,5.8419366,0.14922473,5.8134565,0.14080946,6.370508,0.123467825,5.5586014,0.10450303,6.1496286,0.10612886,6.820655,0.09221378,5.9644327,0.08261018,6.219443,0.08455248,6.679978,0.06866578,7.982994,0.049339086,5.481084,0.05482158,4.8449616,0.09214067,6.102796,0.05846466,7.551168,0.04163618,7.276765,0.041587375,7.343958,0.019188544,6.0198574,0.06509453,5.790692,0.030237237,8.072358,0.010279133,6.8205175,0.0050230706,6.4044137,0.004341006,8.378046,-0.004875621,6.9984846,-0.026977818,7.398831,-0.03364833,6.5343075,-0.010824732,7.349453,-0.040208597,7.410417,-0.047843184,6.7601776,-0.043842025,6.64331,-0.04534592,7.1684027,-0.007826965,7.40088,-0.04157954,6.379566,-0.03969987,7.003433,-0.055878088,7.105774,-0.06525588,5.369129,-0.0890975,6.7631264,-0.08150186,5.6126,-0.1189569,6.6797333,-0.10236529,5.669413,-0.12126392,6.425359,-0.13012993,5.627202,-0.16752832,5.4000683,-0.16739655,5.7737393,-0.19896998,5.8635473,-0.1723336,5.5190654,-0.19141783,5.264854,-0.20739192
2026-03-04 16:16:22.4548,124.26,143097.94,6.3408989906311035,5.0632505,0.24342589,5.328613,0.21003023,5.3112044,0.17963433,5.990183,0.16650075,5.0604415,0.17664017,5.5424657,0.15603162,5.8512836,0.14092763,5.772214,0.15119807,6.3967986,0.11811808,5.422369,0.08694091,6.0623283,0.08756742,6.7846026,0.07126852,6.0151563,0.06554889,6.2917714,0.06468415,6.807683,0.068603516,7.8997183,0.031998314,5.5094967,0.03607708,4.8185134,0.09045243,6.0616393,0.047794845,7.603672,0.03676051,7.2416353,0.052376237,7.3456035,0.014757635,5.938268,0.056066547,5.7474976,0.007435143,8.052466,-0.009258672,6.911962,-0.0021743674,6.506943,0.0036206346,8.282572,-0.020075573,7.077849,-0.029583478,7.3679013,-0.0353893,6.584136,-0.016148448,7.323029,-0.034898248,7.4279604,-0.040849987,6.6222024,-0.039558418,6.7390156,-0.043805942,7.041537,-0.0138452295,7.3823667,-0.055802666,6.3569956,-0.061197918,7.0722976,-0.06545209,7.2351885,-0.06743875,5.2797995,-0.10718378,6.761248,-0.088476434,5.5579767,-0.11274031,6.6940637,-0.116872825,5.698553,-0.11375752,6.523379,-0.12385909,5.571497,-0.15087225,5.5072956,-0.16435744,5.695405,-0.20306066,5.794129,-0.18487649,5.4924326,-0.20823538,5.3001447,-0.21406744
2026-03-04 16:16:22.4598,124.26,143097.94,6.329434394836426,5.1087976,0.2599238,5.234069,0.22112979,5.3791137,0.20708543,5.8461614,0.18409477,5.123236,0.17761274,5.47327,0.16955914,5.8317447,0.15958539,5.7908792,0.15822726,6.304167,0.13450776,5.5863805,0.09316689,6.1420155,0.09181051,6.7744465,0.07889482,5.9763308,0.06769451,6.221277,0.069593675,6.590956,0.06777449,8.022444,0.05428426,5.413945,0.05667165,4.8972073,0.09585937,5.9803023,0.04892891,7.5755086,0.043702748,7.2714167,0.050810132,7.326954,0.025849542,6.0796704,0.06242446,5.7812085,0.01567544,8.036956,-0.0023145317,6.7833867,-0.004790384,6.2760153,0.0056901616,8.43914,-0.006199215,6.9719934,-0.019998837,7.431929,-0.028573046,6.44372,-0.017493553,7.3802795,-0.02672395,7.415335,-0.04599059,6.705771,-0.039152365,6.607887,-0.048323058,7.2214565,-0.0146891605,7.373728,-0.049406786,6.373122,-0.056696292,7.000823,-0.06483915,7.067369,-0.06472314,5.4446383,-0.09896445,6.6735663,-0.08810023,5.6390243,-0.112973444,6.5936537,-0.115800254,5.684775,-0.120076664,6.4237795,-0.1224302,5.643514,-0.16260974,5.376634,-0.16398962,5.8445497,-0.20822603,5.8442616,-0.18906741,5.4755116,-0.22365877,5.22627,-0.21736753
2026-03-04 16:16:22.4649,123.83,143098.06,6.354004859924316,5.143978,0.27220744,5.2093506,0.2309881,5.4590487,0.20984522,5.8373103,0.1903391,5.201837,0.18408091,5.4684534,0.17533305,5.8295856,0.1617683,5.829509,0.1480738,6.3497953,0.13297644,5.6950336,0.1026632,6.192815,0.11062643,6.816155,0.0943957,6.012487,0.087497145,6.227128,0.08559852,6.5445247,0.07625226,8.13144,0.05910268,5.4147315,0.063648,4.914498,0.09626268,5.9733305,0.05455988,7.5598273,0.04626491,7.252244,0.043727703,7.3252854,0.02773862,6.157458,0.060748078,5.8452764,0.026345741,8.051127,0.0075847497,6.732801,0.009289482,6.2619557,0.008780371,8.5150585,0.0032952065,6.899142,-0.012793027,7.519869,-0.023034371,6.4044623,-0.012060101,7.3976846,-0.03190908,7.383691,-0.04776684,6.742886,-0.03859636,6.662239,-0.046679974,7.2922745,-0.013231923,7.458324,-0.035758793,6.3794694,-0.040087797,7.0136194,-0.05595676,7.008096,-0.058893085,5.5032396,-0.08875256,6.704119,-0.078084916,5.6943226,-0.10546914,6.5743356,-0.10815886,5.734715,-0.12835252,6.4429893,-0.12603886,5.727453,-0.16680846,5.387726,-0.16425201,5.915626,-0.19718832,5.873186,-0.17052394,5.5053544,-0.20211896,5.231402,-0.21096388
2026-03-04 16:16:22.4699,121.27,143097.28,6.359363079071045,5.1273756,0.2674537,5.2628546,0.22402316,5.4619517,0.20144759,5.8677278,0.18731776,5.148942,0.18558034,5.4754944,0.1783674,5.8684616,0.15349582,5.845526,0.14998607,6.394622,0.12552086,5.5982876,0.09906323,6.146929,0.10061061,6.792244,0.08181958,6.06466,0.07726744,6.333439,0.07827094,6.664195,0.075539306,8.07421,0.051145155,5.4046206,0.04752248,4.9244375,0.10355548,6.0265093,0.05603027,7.565982,0.04145456,7.2997713,0.050022844,7.3645983,0.022299767,6.0670657,0.055589434,5.807253,0.023969328,8.050483,0.00079001405,6.8395224,0.0040108818,6.363617,0.009538678,8.440056,-0.0055472986,6.946677,-0.022253009,7.484729,-0.021384282,6.453099,-0.011359442,7.349097,-0.029130422,7.477932,-0.049361046,6.6865816,-0.043475445,6.720632,-0.04763113,7.2072964,-0.01821546,7.3659687,-0.04881208,6.3819437,-0.047605325,7.070866,-0.061608233,7.1023517,-0.06302701,5.424201,-0.090973854,6.698626,-0.08764588,5.6751466,-0.11348114,6.582387,-0.10727617,5.7129135,-0.1214357,6.468092,-0.13042496,5.649338,-0.1628735,5.4599757,-0.16552559,5.8192706,-0.20976609,5.8662,-0.17750417,5.4975977,-0.21056144,5.3051476,-0.21223806
2026-03-04 16:16:22.4750,119.55,143095.92,6.355639934539795,5.1209407,0.24329323,5.251693,0.20766507,5.391879,0.18954864,5.890978,0.16911383,5.148562,0.17674783,5.57478,0.1632953,5.9202595,0.15663074,5.794229,0.15444088,6.355506,0.119858146,5.5532894,0.08534296,6.1587377,0.079176754,6.873749,0.06138217,6.0107856,0.048132766,6.229594,0.055660255,6.677663,0.06736722,7.9816823,0.041970808,5.4401875,0.03646277,4.898173,0.08688428,6.077272,0.05195855,7.673371,0.041475058,7.272638,0.05251266,7.313546,0.019917456,6.0424314,0.054213416,5.8245707,-0.0042906255,8.048079,-0.014945965,6.839969,-0.020157779,6.363298,-0.0029825324,8.396781,-0.017455444,6.9773355,-0.03666655,7.4589357,-0.040223848,6.529977,-0.021987565,7.4300523,-0.025340099,7.44537,-0.044865593,6.659753,-0.03281527,6.666842,-0.04670337,7.1750584,-0.02116565,7.4424458,-0.06718371,6.3546095,-0.06936109,7.01445,-0.08004166,7.0502415,-0.07500929,5.400462,-0.10980308,6.717873,-0.09586374,5.639799,-0.12657839,6.67509,-0.1196534,5.772219,-0.11634392,6.475383,-0.13069272,5.6216044,-0.15908198,5.417675,-0.16717313,5.812243,-0.21532616,5.870563,-0.20084158,5.5022717,-0.2337822,5.2583933,-0.2272005
2026-03-04 16:16:22.4799,119.08,143095.06,6.359145164489746,5.1390758,0.25673005,5.2322063,0.21832809,5.456518,0.19966179,5.838616,0.18007123,5.1867805,0.17899682,5.4940457,0.17026107,5.864174,0.1573872,5.841362,0.15631014,6.39016,0.12982053,5.6452,0.099512346,6.182939,0.09151908,6.8173075,0.076711714,6.0063095,0.07186585,6.2713695,0.07251174,6.610719,0.07363726,8.106165,0.047687504,5.409665,0.048742324,4.9165454,0.09255211,5.9921517,0.056866083,7.6063685,0.046569213,7.2995768,0.051500116,7.3514256,0.02172824,6.130018,0.06605491,5.8024483,0.020131536,8.087368,-0.0058177477,6.813251,-0.003895698,6.33317,0.004436926,8.487983,-0.00871263,6.916474,-0.026643833,7.527094,-0.027712693,6.392555,-0.015018959,7.383778,-0.029989818,7.41713,-0.04999154,6.7128253,-0.034871,6.7206206,-0.044291854,7.296128,-0.013315925,7.40064,-0.051953405,6.3894253,-0.051078595,7.0263686,-0.06504205,7.044254,-0.06308112,5.4760656,-0.09348094,6.700765,-0.089304484,5.699765,-0.11728269,6.548683,-0.11032905,5.7214274,-0.119902566,6.4448414,-0.12514934,5.607304,-0.16379812,5.4250937,-0.1650982,5.8699217,-0.20959672,5.8699584,-0.18614507,5.5278444,-0.21985516,5.243619,-0.21444495
2026-03-04 16:16:22.5051,122.36,143087.23,6.362371444702148,5.1073275,0.24603231,5.2460914,0.20169325,5.3434815,0.18119624,5.935875,0.16788913,5.1275225,0.1633886,5.59197,0.16427547,5.9124193,0.1497017,5.819587,0.15098855,6.347136,0.12359418,5.546607,0.09046442,6.169589,0.07914857,6.8528595,0.066864125,6.0253963,0.06465654,6.2478275,0.05890555,6.661428,0.062387984,8.003636,0.038626686,5.499746,0.03552611,4.8675046,0.076339155,6.1072903,0.053247865,7.667258,0.0324088,7.2905993,0.046070408,7.3117447,0.027690006,6.042371,0.059356898,5.8185253,0.006013179,8.088753,-0.0021856115,6.838167,-0.008204124,6.3752227,-0.009472171,8.37615,-0.012933226,7.0249095,-0.029460367,7.4207954,-0.042306986,6.527766,-0.01977256,7.430374,-0.036019124,7.4517827,-0.040431973,6.681315,-0.036708325,6.675137,-0.037884075,7.1622806,-0.019958379,7.460473,-0.0583686,6.395642,-0.055798803,7.054252,-0.06737161,7.126593,-0.081559986,5.3958006,-0.10650263,6.7446647,-0.08880275,5.626085,-0.12403038,6.7023807,-0.11869162,5.771856,-0.11864319,6.459953,-0.12094559,5.613687,-0.15411493,5.443639,-0.16341825,5.819157,-0.20438918,5.8797703,-0.1925545,5.495097,-0.21383078,5.2578354,-0.21720907
2026-03-04 16:16:22.5100,122.36,143087.23,6.363223552703857,5.142935,0.27996394,5.231277,0.22664976,5.4742627,0.21350025,5.8141956,0.20010525,5.1979704,0.1924402,5.536478,0.18490908,5.9259667,0.15678702,5.830823,0.14662336,6.358501,0.13786848,5.6649003,0.09908514,6.18862,0.102516875,6.8430448,0.08905177,5.9899116,0.08827417,6.2246428,0.08113969,6.5616007,0.0710889,8.135906,0.05683862,5.390726,0.06347964,4.941089,0.101273865,6.0162196,0.06576064,7.638994,0.045728672,7.2886353,0.04204777,7.3498173,0.03337169,6.1707053,0.054894242,5.820391,0.030650992,8.070316,0.013638945,6.815252,0.014139368,6.29717,-0.0025974344,8.483652,0.002980731,6.915941,-0.011187757,7.5113373,-0.024995308,6.418047,-0.0076206173,7.404403,-0.031917952,7.4125557,-0.053955786,6.7396545,-0.042426415,6.6541557,-0.041797932,7.345633,-0.019858943,7.4579797,-0.043112352,6.375594,-0.038551196,7.0128303,-0.05218456,6.9899898,-0.065648936,5.504166,-0.0856666,6.6910896,-0.07794066,5.7089825,-0.11195742,6.593204,-0.10280033,5.7560763,-0.12849528,6.4120255,-0.12798336,5.665386,-0.1715908,5.3844695,-0.1668951,5.8962164,-0.21274275,5.90887,-0.17464985,5.4965534,-0.21587762,5.2284527,-0.21208474
2026-03-04 16:16:22.5150,121.77,143086.55,6.360116958618164,5.099413,0.2655292,5.32279,0.21867444,5.4055505,0.19824533,5.955194,0.18180585,5.132248,0.18231332,5.500722,0.17903878,5.8263006,0.1478855,5.8200874,0.14399149,6.3982677,0.12302821,5.587257,0.09236637,6.114288,0.109489076,6.8727636,0.09202387,5.984123,0.089466624,6.2709513,0.08745773,6.724735,0.07076376,8.027497,0.058145713,5.501293,0.05776651,4.900123,0.096855804,6.021822,0.058454584,7.5327644,0.033178523,7.2834215,0.04551125,7.362116,0.020574592,6.1008487,0.054793023,5.7407594,0.038041856,8.137962,0.013984848,6.818003,0.0141170155,6.481286,0.00019833924,8.391805,0.0023850107,6.9931436,-0.014069471,7.5096707,-0.022491865,6.459263,-0.005547058,7.295402,-0.037608974,7.448739,-0.04343371,6.7123837,-0.047936976,6.7414517,-0.046403397,7.2378063,-0.010985499,7.3529315,-0.03168679,6.381898,-0.032767814,7.011216,-0.050470468,7.113892,-0.06149434,5.414706,-0.07949833,6.757659,-0.068476446,5.629803,-0.1097821,6.616468,-0.10362998,5.6450276,-0.124382004,6.4491997,-0.12330744,5.678227,-0.1602499,5.486764,-0.17033838,5.855832,-0.19832842,5.821648,-0.16147877,5.527135,-0.20126967,5.271378,-0.20184942
2026-03-04 16:16:22.5200,121.32,143086.48,6.3619771003723145,5.103367,0.25457472,5.308835,0.21277507,5.3748736,0.19246869,5.9055767,0.17671053,5.1686716,0.16776763,5.5391,0.17030506,5.8126173,0.15594323,5.837676,0.1529685,6.3669724,0.13055545,5.5931497,0.09595801,6.169237,0.0862484,6.8689647,0.06997795,6.000677,0.06583917,6.2585516,0.064247325,6.66475,0.06484857,8.033523,0.047924276,5.490382,0.045329314,4.862196,0.08085,6.041258,0.055457674,7.5824146,0.044163983,7.301856,0.04371944,7.3733454,0.023442475,6.0799417,0.053684883,5.8255863,0.0033692478,8.055879,-0.009262594,6.7844677,-0.00598468,6.3246603,-0.00017017215,8.4407625,-0.010896019,7.047128,-0.033095844,7.4554515,-0.038163837,6.4729295,-0.011250895,7.4040437,-0.03407545,7.4070125,-0.05095787,6.788089,-0.042953324,6.652866,-0.04908817,7.2522354,-0.016796507,7.462532,-0.064827606,6.380021,-0.05563047,6.9776626,-0.06967151,7.0946836,-0.077067085,5.405509,-0.10133448,6.7536173,-0.09758122,5.646153,-0.125301,6.654237,-0.11323313,5.7348547,-0.12292059,6.4325457,-0.1296011,5.6946907,-0.15804255,5.41606,-0.17159459,5.8510823,-0.21373586,5.883804,-0.20039316,5.5197306,-0.22549704,5.266583,-0.22619568
2026-03-04 16:16:22.5250,120.8,143086.86,6.364525318145752,5.140066,0.24206945,5.2489085,0.20195226,5.432549,0.18044242,5.9290867,0.16171613,5.142527,0.15911141,5.492028,0.16165394,5.897172,0.13873619,5.780866,0.15334,6.4318786,0.1183068,5.5724506,0.09291385,6.0761275,0.07981,6.8357034,0.06903524,6.038779,0.069627814,6.3172154,0.05871251,6.6861873,0.061058592,8.054767,0.032954406,5.420928,0.033399172,4.9296074,0.06530705,6.027789,0.047921166,7.572146,0.034406297,7.2673016,0.048373375,7.415093,0.020786513,6.078131,0.05847923,5.7463164,0.0037542307,8.141047,-0.007214006,6.8582954,-0.0022197487,6.4434204,-0.0045461757,8.402287,-0.021101797,6.9418173,-0.037817996,7.523171,-0.04259556,6.4735227,-0.020783551,7.328657,-0.039306946,7.502097,-0.04278622,6.6371026,-0.03584853,6.771223,-0.045133714,7.1904364,-0.020179566,7.4010425,-0.059576683,6.3986087,-0.051964357,7.0626984,-0.07366031,7.1240745,-0.07191033,5.376432,-0.10748305,6.666015,-0.09096794,5.722024,-0.12655029,6.6514273,-0.11618766,5.689559,-0.12060833,6.515665,-0.11913261,5.630255,-0.14679654,5.5044765,-0.16978641,5.840548,-0.20109689,5.8234224,-0.18751125,5.5221477,-0.21295233,5.280243,-0.21552742
2026-03-04 16:16:22.5299,119.68,143088.19,6.362380027770996,5.117569,0.26586908,5.2494917,0.21798027,5.4404473,0.20411235,5.8448277,0.18200225,5.202323,0.17442942,5.523503,0.1727919,5.858321,0.15915418,5.829308,0.14915498,6.302026,0.13433242,5.6603794,0.09230574,6.2228866,0.095231004,6.827211,0.0788432,6.015237,0.07890012,6.189285,0.07238015,6.5918016,0.06693807,8.140763,0.05198286,5.4138093,0.05840772,4.940728,0.08681531,6.033912,0.050677747,7.6006465,0.04297638,7.268028,0.046282306,7.3419833,0.029817697,6.140952,0.053439364,5.837999,0.021551117,8.060114,0.0005757757,6.7718925,-0.00054748775,6.306988,-0.0052771107,8.513865,-0.0053806095,6.9223366,-0.020384366,7.498204,-0.032834303,6.445922,-0.020238077,7.381699,-0.039246887,7.4227204,-0.04746837,6.770417,-0.04021505,6.659291,-0.042846676,7.284314,-0.019987984,7.5106993,-0.049544,6.369672,-0.050535135,6.9922485,-0.06724116,7.0130844,-0.07251731,5.5014105,-0.094060175,6.706959,-0.0870543,5.685354,-0.12040917,6.60617,-0.11799207,5.7694273,-0.12519187,6.4194455,-0.12241767,5.6726246,-0.1636184,5.381601,-0.16858317,5.929109,-0.21631372,5.889619,-0.19223104,5.496339,-0.21842839,5.2687974,-0.22449528
2026-03-04 16:16:22.5350,119.09,143088.66,6.3536906242370605,5.136209,0.24296094,5.239801,0.20079228,5.424224,0.18556672,5.9062605,0.16199568,5.1468267,0.15897258,5.4774747,0.16013733,5.884484,0.14600456,5.7776775,0.14112858,6.379728,0.1162958,5.5668573,0.08694563,6.1089754,0.08086295,6.8331537,0.06649507,6.024209,0.06725777,6.3149233,0.057860825,6.665648,0.058925044,8.041189,0.040221892,5.43363,0.034948707,4.89098,0.07187785,6.006286,0.051842142,7.571496,0.040375162,7.2840447,0.045120355,7.370966,0.02389894,6.0673885,0.05172032,5.758451,0.0013965217,8.061873,-0.0059922817,6.83935,-0.0048529864,6.4032927,-0.0035901135,8.415408,-0.012623866,6.9486027,-0.03515429,7.4890423,-0.045085393,6.426262,-0.014137993,7.343209,-0.03551809,7.4505105,-0.040230736,6.665545,-0.04001056,6.6933317,-0.039287936,7.1862173,-0.015425057,7.3928094,-0.060294103,6.388037,-0.04996522,7.068478,-0.075884014,7.1132684,-0.07071093,5.4037147,-0.099507935,6.7085137,-0.090897724,5.6651864,-0.13063917,6.626113,-0.114971325,5.7480464,-0.11769231,6.496678,-0.12337229,5.621104,-0.15708467,5.481022,-0.16149524,5.8125463,-0.20445532,5.83029,-0.18771267,5.5165195,-0.21685328,5.285997,-0.22282216
2026-03-04 16:16:22.5399,118.33,143089.41,6.335289478302002,5.101876,0.25665152,5.301664,0.21472864,5.3507457,0.19206282,5.893378,0.17199656,5.116435,0.17100006,5.4953756,0.16678397,5.840654,0.15113235,5.8010197,0.15128897,6.369371,0.12292172,5.525727,0.09326624,6.105966,0.097276516,6.808691,0.07583263,6.0017967,0.069976196,6.261637,0.063760266,6.6846485,0.061131705,7.9786143,0.046337284,5.4637275,0.039375406,4.8862433,0.08858769,6.0562644,0.046736903,7.5849705,0.036263157,7.25619,0.052474298,7.3123674,0.02531141,6.0273695,0.053305235,5.7729588,0.011290646,8.048938,-0.0065447,6.802937,-0.0009035143,6.385251,-0.0044227946,8.323621,-0.008743517,6.9908004,-0.03142044,7.4319143,-0.03657231,6.488358,-0.02048045,7.332184,-0.038630646,7.4067783,-0.04213807,6.6774235,-0.038679574,6.6517262,-0.04339586,7.1283736,-0.017776823,7.392602,-0.04999329,6.361147,-0.055607393,7.025704,-0.07096033,7.109171,-0.0724137,5.359198,-0.10109151,6.7326293,-0.08438657,5.6028185,-0.12480883,6.6300297,-0.1196366,5.692466,-0.12011672,6.437203,-0.1267917,5.60879,-0.15669516,5.419635,-0.16701661,5.790236,-0.20081638,5.8192587,-0.18628348,5.5217752,-0.2178238,5.266389,-0.21683267
2026-03-04 16:16:22.5450,118.33,143089.41,6.36212682723999,5.0490327,0.2713206,5.322953,0.23525466,5.3618703,0.21408801,5.9350314,0.19447912,5.096448,0.19218853,5.60317,0.17726573,5.8738246,0.15152675,5.8283668,0.1480459,6.335138,0.13151978,5.586403,0.10333217,6.203673,0.11679243,6.838239,0.0963646,6.0246077,0.091305815,6.188011,0.09745059,6.6847386,0.07917812,8.008336,0.06298517,5.5060844,0.06388151,4.8664093,0.10856207,6.1430755,0.060566027,7.6394563,0.040117234,7.259154,0.04445709,7.285113,0.025079744,6.0649157,0.059239678,5.8187,0.040861096,8.095857,0.017291876,6.8711276,0.022415506,6.407178,0.0038014087,8.397548,0.0076116086,7.062767,-0.006251359,7.3977666,-0.015541048,6.547525,-0.0057762214,7.399791,-0.03556911,7.423763,-0.04788986,6.73311,-0.04653964,6.650408,-0.048878785,7.173676,-0.015303871,7.4642987,-0.025563234,6.386233,-0.02946927,6.9955697,-0.042274326,7.086128,-0.05430652,5.4113564,-0.07471218,6.771389,-0.071659446,5.5854735,-0.10424348,6.6928725,-0.10203471,5.7682595,-0.12508456,6.4352922,-0.1280637,5.648943,-0.1670118,5.386349,-0.1620731,5.820814,-0.19718504,5.8936124,-0.1578263,5.505575,-0.19285823,5.295162,-0.19974132
2026-03-04 16:16:22.5601,116.2,143091.2,6.35449743270874,5.1078973,0.26858473,5.260855,0.22264676,5.3795276,0.20984009,5.917098,0.19331433,5.1482058,0.18420662,5.5626235,0.17808896,5.8463697,0.16156971,5.8310595,0.15288343,6.3041253,0.13531783,5.598875,0.09215028,6.185696,0.10595798,6.859897,0.07634261,5.9599576,0.07417447,6.1912932,0.07333077,6.609328,0.07089675,8.046938,0.056887545,5.4784603,0.056649562,4.8851233,0.10056583,6.0706024,0.052571636,7.590175,0.048387293,7.264766,0.050104354,7.3347435,0.024086334,6.064345,0.050808188,5.8446927,0.0137770735,8.059587,0.0019939973,6.730494,-0.004956531,6.3206215,0.00732701,8.437071,-0.003207036,7.0217476,-0.015882438,7.4373617,-0.032558147,6.47054,-0.015874546,7.415877,-0.02790134,7.362325,-0.0515058,6.786943,-0.042156,6.606381,-0.04539619,7.25954,-0.01464045,7.477973,-0.0538527,6.362693,-0.060215082,6.963695,-0.06343764,7.0553727,-0.066073716,5.45856,-0.10087717,6.7514277,-0.0818814,5.6355805,-0.11113973,6.6588216,-0.114544235,5.754252,-0.12042058,6.398839,-0.12692983,5.7129555,-0.17123841,5.390313,-0.1734331,5.8855977,-0.20717767,5.9085746,-0.19511728,5.5073915,-0.21645027,5.2606864,-0.22272125
2026-03-04 16:16:22.5651,114.99,143091.97,6.355103015899658,5.1165223,0.27320498,5.2179885,0.22595151,5.4454837,0.21559078,5.8566732,0.19901873,5.2124476,0.18696475,5.539488,0.17626494,5.8229723,0.1681608,5.842954,0.1540964,6.330284,0.13708614,5.6529536,0.098324075,6.1928697,0.10570076,6.8383083,0.08581986,5.984647,0.07691878,6.1779633,0.0853302,6.5455933,0.069654316,8.106255,0.061570585,5.444041,0.06585046,4.9206166,0.10012302,6.0141044,0.053607352,7.6135654,0.04780277,7.25994,0.04785083,7.3352304,0.038473282,6.1460443,0.05736351,5.8229384,0.019412119,8.081229,0.0045337193,6.74195,0.0009860833,6.2670064,0.0009545675,8.514548,-0.0013067869,6.9834127,-0.018470664,7.465994,-0.025847979,6.388628,-0.011825596,7.3946433,-0.033576008,7.374331,-0.053726077,6.7573786,-0.03811926,6.660394,-0.0474911,7.3027525,-0.015495243,7.4592705,-0.043555375,6.3933063,-0.04136188,6.973385,-0.059209686,6.9848824,-0.06423238,5.4858627,-0.09730873,6.716273,-0.08408249,5.6499357,-0.117648244,6.579842,-0.11205947,5.779147,-0.12518144,6.400376,-0.12694693,5.6809287,-0.16608356,5.4023256,-0.16891684,5.921776,-0.20900148,5.8993807,-0.1873359,5.5282393,-0.21142948,5.2382708,-0.21639496
2026-03-04 16:16:22.5701,114.99,143091.97,6.359220504760742,5.161581,0.25533295,5.2203856,0.21585105,5.4863205,0.1926141,5.8770723,0.17610012,5.181675,0.17435253,5.488699,0.16980307,5.876009,0.14871405,5.811323,0.15331362,6.4031262,0.12326858,5.6283317,0.091580786,6.127531,0.09357406,6.813199,0.08347453,6.013224,0.073353715,6.325421,0.074421205,6.600099,0.06868925,8.121659,0.04665433,5.3754168,0.049260806,4.9869375,0.08477117,5.9830503,0.05177144,7.590865,0.039527874,7.3234115,0.051923174,7.351945,0.021665089,6.1258945,0.05696656,5.819789,0.019364962,8.056145,0.0037412276,6.8595195,0.002561748,6.306836,0.0052446034,8.507135,-0.009162828,6.8796077,-0.027100317,7.539646,-0.03165498,6.3844366,-0.01095847,7.3677845,-0.031211674,7.502699,-0.046051767,6.71012,-0.040450543,6.6852493,-0.040191688,7.263835,-0.0135169085,7.415279,-0.049958725,6.363505,-0.046189263,7.0673327,-0.061866265,7.0227923,-0.06537497,5.4847245,-0.09194394,6.6422753,-0.0876777,5.7248664,-0.118504435,6.5628605,-0.10771954,5.7016234,-0.11444289,6.4501715,-0.122769676,5.5952396,-0.15831377,5.4524436,-0.16949446,5.8708386,-0.19924973,5.8325777,-0.17978263,5.4939327,-0.20785129,5.2430515,-0.20982617
2026-03-04 16:16:22.5751,112.16,143095.16,6.360642433166504,5.134611,0.2828739,5.190053,0.23171258,5.500711,0.2165233,5.7921205,0.19702257,5.214104,0.19014198,5.5061193,0.18535002,5.891209,0.15726517,5.8262424,0.15339522,6.3112264,0.12917455,5.707429,0.10914405,6.22232,0.12920219,6.842217,0.11013531,6.0116076,0.10565756,6.2040443,0.109687634,6.5244064,0.087575756,8.193264,0.06622696,5.341807,0.071929425,4.9866743,0.10941965,5.985992,0.0609443,7.606079,0.04018579,7.267802,0.04707033,7.3116965,0.017087866,6.163786,0.06406237,5.873771,0.053694554,8.046352,0.029131137,6.7973228,0.028247844,6.2679853,0.009133808,8.532703,0.0068548815,6.875783,-0.0060745287,7.5560093,-0.017939122,6.39184,-0.0021318255,7.4304943,-0.035168465,7.429506,-0.050562013,6.745977,-0.042614926,6.624074,-0.045330606,7.344184,-0.004618546,7.460436,-0.023150327,6.3472705,-0.022279404,7.0222225,-0.034441754,6.9291973,-0.045714345,5.5280237,-0.089728385,6.640282,-0.07233143,5.719346,-0.104421936,6.5909657,-0.09523057,5.784028,-0.124905504,6.44236,-0.12513378,5.6651416,-0.16755882,5.3861938,-0.17664416,5.9237,-0.1928986,5.92055,-0.15607652,5.4993854,-0.1835185,5.2427545,-0.19523053
2026-03-04 16:16:22.5851,118.1,143097.14,6.364565372467041,5.125913,0.27468732,5.2593956,0.22822227,5.4327726,0.21464886,5.8896356,0.19325311,5.201545,0.18935083,5.512618,0.18628165,5.854883,0.15519491,5.830924,0.15128969,6.3498883,0.12519187,5.631193,0.10785968,6.1978054,0.1177058,6.8415904,0.098144546,6.0067244,0.092233874,6.2497873,0.09107193,6.6439285,0.07820696,8.0971775,0.060418047,5.421292,0.06181074,4.946797,0.10527062,6.0349073,0.059588403,7.6078963,0.04594797,7.265814,0.04371292,7.350304,0.016802669,6.130378,0.058816273,5.849085,0.04162449,8.053151,0.016180683,6.7847657,0.009326305,6.2993326,0.009648004,8.461747,0.0019497977,6.9632993,-0.015525866,7.5183125,-0.018021671,6.446389,-0.012297015,7.4005113,-0.035806574,7.4178085,-0.055423405,6.7307086,-0.045845024,6.6725483,-0.053066302,7.28612,-0.010156119,7.468561,-0.026708908,6.4043956,-0.03774131,7.0062375,-0.04774667,7.0527005,-0.053041205,5.4546847,-0.093531236,6.7059135,-0.07904606,5.680866,-0.1061814,6.651971,-0.10379016,5.727967,-0.12905037,6.4239097,-0.1277179,5.702136,-0.16907565,5.3974338,-0.1753909,5.894028,-0.20480259,5.880202,-0.16739392,5.494273,-0.20231982,5.245188,-0.20289996
2026-03-04 16:16:22.5950,120.43,143097.45,6.361568927764893,5.1166253,0.2616243,5.3419805,0.22435144,5.4025836,0.2018357,5.9373994,0.17966343,5.098607,0.18081287,5.569876,0.1701743,5.857786,0.15182367,5.817499,0.1490981,6.401959,0.1253127,5.5543113,0.09915667,6.107217,0.106420055,6.845928,0.090358794,5.9972677,0.08665921,6.2874756,0.07810776,6.76466,0.073770516,8.036234,0.049933866,5.4904647,0.054580394,4.8492446,0.09935171,6.050167,0.057735287,7.5921774,0.040803157,7.261616,0.04729863,7.3741784,0.020434547,6.035693,0.061515722,5.769806,0.036013514,8.12639,0.011238084,6.8634257,0.01318004,6.4605994,0.007074022,8.362768,-0.0018065785,7.010731,-0.018523782,7.425222,-0.021941403,6.52398,-0.01304056,7.3353305,-0.03116895,7.4360647,-0.04718234,6.6872454,-0.036207285,6.757488,-0.04561936,7.1813526,-0.01233181,7.3951554,-0.034749724,6.3889847,-0.035947062,7.033618,-0.051405586,7.171788,-0.057185747,5.384448,-0.08810263,6.7291956,-0.078177616,5.603666,-0.109959975,6.629879,-0.10220481,5.730932,-0.11781251,6.4600973,-0.122158915,5.635809,-0.16078612,5.4546165,-0.17480949,5.7766247,-0.19828992,5.8608603,-0.16840294,5.5067797,-0.20260686,5.3077774,-0.20164637
2026-03-04 16:16:22.6002,122.65,143097.66,6.367320537567139,5.1540728,0.27905694,5.222284,0.23660535,5.4551535,0.21480438,5.8430233,0.19371684,5.225363,0.19202873,5.507397,0.18303865,5.8494744,0.16451259,5.850996,0.16458772,6.3330765,0.13596618,5.7055507,0.10346093,6.2011194,0.11870116,6.874301,0.098711394,6.0078845,0.088774726,6.1574883,0.0896339,6.554208,0.08121077,8.154543,0.06424189,5.427486,0.062284492,4.973568,0.105144635,6.001836,0.05246352,7.5903687,0.04654507,7.2991753,0.05385133,7.3371887,0.030726993,6.149923,0.06315364,5.835216,0.03520709,8.060094,0.01021878,6.7291355,0.008260751,6.251712,0.0023771091,8.554014,0.0019189204,6.9559054,-0.016797643,7.548241,-0.027729928,6.4330993,-0.018209986,7.411412,-0.034427736,7.3648443,-0.050343264,6.796621,-0.044822223,6.6205916,-0.05649216,7.3845625,-0.011522212,7.4777064,-0.033907592,6.3937793,-0.045438707,6.983757,-0.057672277,6.981001,-0.06298804,5.525882,-0.106181994,6.7224956,-0.0898484,5.729251,-0.1153197,6.583782,-0.12011487,5.777961,-0.1313189,6.392902,-0.12654847,5.7130384,-0.1732785,5.3986917,-0.18142551,5.9444437,-0.21189846,5.9151964,-0.18497045,5.5067425,-0.21600199,5.233079,-0.2143636
2026-03-04 16:16:22.6051,122.65,143097.66,6.370070934295654,5.155783,0.25392234,5.2488785,0.2054898,5.496848,0.18500082,5.8317447,0.17081092,5.2148485,0.16836527,5.5150146,0.17065436,5.9105034,0.14763223,5.815472,0.14887294,6.3934765,0.12040444,5.629861,0.09766506,6.116965,0.09300436,6.8500533,0.082559,6.061419,0.07143338,6.271327,0.074243024,6.644194,0.063861206,8.105678,0.04474496,5.3788633,0.03792142,4.9687996,0.08315993,5.972508,0.053470567,7.6213727,0.0349988,7.265885,0.04639309,7.3412275,0.020248342,6.1455464,0.06162757,5.807517,0.017565474,8.111479,0.002675874,6.8703446,0.0011805121,6.38625,0.004642071,8.469034,-0.008947692,6.895466,-0.030488584,7.5601816,-0.03459898,6.45557,-0.010597891,7.3469076,-0.034275804,7.462401,-0.044009287,6.6840634,-0.03599544,6.750897,-0.04290269,7.261986,-0.014490907,7.4075184,-0.04673662,6.3981323,-0.04523214,7.0861483,-0.064729705,7.0701194,-0.066142134,5.4794974,-0.09374914,6.6636467,-0.08856816,5.733669,-0.122615986,6.604147,-0.106121086,5.7121654,-0.11931064,6.4759026,-0.119162194,5.6197886,-0.15633145,5.470094,-0.16935086,5.8724246,-0.19998543,5.8617997,-0.1735344,5.508422,-0.20656802,5.2618337,-0.20751992
2026-03-04 16:16:22.6102,122.65,143097.66,6.3690056800842285,5.128557,0.26365536,5.3261485,0.2143228,5.4156823,0.19311394,5.9283843,0.1775478,5.114781,0.17499559,5.555675,0.16825023,5.9060864,0.1429749,5.7926955,0.14176252,6.413204,0.12262686,5.5383983,0.088314705,6.1316633,0.10164893,6.838605,0.09007957,6.055007,0.08734188,6.3212194,0.08029597,6.7343698,0.06984273,8.009852,0.05252298,5.4768186,0.05846843,4.907293,0.09405918,6.066836,0.052802667,7.599467,0.039021246,7.3173885,0.03923588,7.38916,0.022039047,5.992327,0.05291592,5.8069634,0.035585303,8.074073,0.010806774,6.896413,0.013323956,6.4286804,-0.0006183374,8.367539,-0.0010908936,7.013731,-0.015598593,7.4838796,-0.024827821,6.5413775,-0.008100868,7.383991,-0.040760584,7.5228486,-0.04300086,6.6926928,-0.0446994,6.679356,-0.042221002,7.1451025,-0.011959701,7.3790507,-0.032100655,6.4099507,-0.034984127,7.0839906,-0.049552884,7.1571116,-0.059173092,5.3776536,-0.07255451,6.730112,-0.068448916,5.6523485,-0.119751915,6.687792,-0.10600368,5.7360473,-0.12322159,6.495118,-0.11839537,5.5902433,-0.16231777,5.476189,-0.16340971,5.7665105,-0.19244738,5.8398886,-0.16132578,5.512259,-0.19839881,5.297775,-0.19295163
2026-03-04 16:16:22.6201,124.51,143097.64,6.370280742645264,5.1232505,0.27068835,5.32192,0.22647336,5.4443426,0.19718394,5.872187,0.18403362,5.1110086,0.1842086,5.497871,0.17423955,5.867159,0.15319517,5.8529496,0.153005,6.419164,0.1249399,5.605516,0.102758154,6.1661773,0.110531956,6.8491864,0.09584302,6.0128417,0.08378739,6.26952,0.08795635,6.6859837,0.07374674,8.101144,0.05313098,5.4365263,0.05663753,4.901447,0.10419103,6.03603,0.059877433,7.566699,0.036527395,7.3036003,0.0510036,7.382123,0.021427667,6.09577,0.06507262,5.7962337,0.036244605,8.060462,0.017877927,6.8330994,0.014961892,6.439143,0.008867653,8.437804,-0.001689978,6.9777827,-0.016539909,7.515816,-0.01701641,6.503138,-0.010135223,7.3537154,-0.03417098,7.470231,-0.04477174,6.7304044,-0.037964787,6.730153,-0.044508807,7.2379413,-0.013138771,7.415047,-0.025382672,6.368181,-0.033012107,7.0532846,-0.050416484,7.1203623,-0.05756731,5.464612,-0.08426123,6.7158666,-0.07157547,5.6775894,-0.09962438,6.630169,-0.103396825,5.6717877,-0.115337156,6.4704776,-0.12150307,5.668253,-0.15857719,5.461001,-0.16941483,5.837465,-0.19745128,5.8797336,-0.15890086,5.5098257,-0.19988064,5.3026133,-0.1941662
2026-03-04 16:16:22.6302,125.7,143097.47,6.372754096984863,5.130874,0.2589414,5.3132935,0.21836212,5.414806,0.19733502,5.9485326,0.17581469,5.149488,0.17733067,5.5011544,0.16756642,5.8802586,0.15367837,5.788654,0.15524203,6.410293,0.12486519,5.6024384,0.083816074,6.154719,0.08991636,6.853215,0.066242695,6.0324316,0.065711424,6.280901,0.06670523,6.7150326,0.07347726,8.060092,0.05138449,5.4656253,0.050830647,4.9091234,0.10547605,6.01661,0.04386112,7.5545034,0.040908042,7.2987747,0.05093222,7.361507,0.018710421,6.0900955,0.050382413,5.8164268,0.016173253,8.138362,-0.0037801582,6.8386607,-0.0072558406,6.4141436,0.007977477,8.461514,-0.007487469,7.004763,-0.017344093,7.499427,-0.02328819,6.505448,-0.0234172,7.2989187,-0.03444276,7.4688535,-0.044501007,6.7135253,-0.04393742,6.7531624,-0.046103947,7.247268,-0.015806481,7.3942566,-0.045626972,6.3957224,-0.06495579,7.087154,-0.06465394,7.1400766,-0.06534363,5.4171467,-0.08937694,6.7220864,-0.07354102,5.6707706,-0.109153666,6.664421,-0.113491096,5.6802516,-0.11410382,6.485584,-0.122752056,5.6316986,-0.1594534,5.495541,-0.1699607,5.8656545,-0.20430912,5.8407083,-0.18029399,5.51092,-0.22256708,5.288333,-0.2138921
2026-03-04 16:16:22.6352,122.04,143095.3,6.365906715393066,5.1443353,0.26033333,5.244797,0.21592745,5.470431,0.20475684,5.86045,0.18119791,5.218761,0.1692115,5.473136,0.17842226,5.822355,0.15974052,5.8238845,0.15757184,6.384217,0.13274798,5.705661,0.0964656,6.1494546,0.09631597,6.8725543,0.086294115,6.0047145,0.07454785,6.2609577,0.07412862,6.613546,0.07113581,8.130347,0.051785894,5.397664,0.054404322,4.9610353,0.078415334,5.955354,0.05364612,7.5481806,0.045789484,7.3162675,0.047983028,7.400929,0.024978247,6.192239,0.06250203,5.7630224,0.014367082,8.1135235,0.00068689685,6.712848,0.001190362,6.314467,-0.0033187408,8.546176,-0.003699054,6.9475718,-0.02738193,7.53491,-0.042712886,6.3779907,-0.016325898,7.368538,-0.037267324,7.3810763,-0.049562424,6.7887316,-0.0469614,6.6695766,-0.0489123,7.336404,-0.015417637,7.3822823,-0.05055021,6.446588,-0.046592385,6.998334,-0.067589454,7.0505037,-0.07214517,5.4765873,-0.09922009,6.7099543,-0.09081827,5.715292,-0.13375498,6.5480585,-0.11058296,5.73152,-0.12362095,6.402893,-0.12209594,5.6874347,-0.16803361,5.4204617,-0.17004274,5.98349,-0.2101319,5.8520637,-0.19027443,5.5514174,-0.21901622,5.2641597,-0.2195473
2026-03-04 16:16:22.6405,113.9,143093.02,6.354823112487793,5.1262426,0.26741892,5.3240385,0.21981853,5.422874,0.19877881,5.923899,0.18520321,5.1043777,0.18318127,5.4923673,0.17418575,5.79227,0.14992584,5.8121967,0.15238719,6.42967,0.13007931,5.584439,0.09301283,6.118748,0.09811705,6.8274846,0.084036596,6.0338583,0.08050876,6.284207,0.07720084,6.7396173,0.07051733,8.024777,0.055856403,5.430095,0.058185324,4.888068,0.1045929,6.01301,0.065011166,7.528512,0.03777883,7.2906365,0.046661258,7.3821526,0.028633092,6.0947027,0.056077454,5.747258,0.026462369,8.07384,0.007237527,6.821217,0.0067812563,6.4338145,0.0038862072,8.424565,-9.339133e-06,6.9857097,-0.017048037,7.440232,-0.020136753,6.4649825,-0.008311209,7.266147,-0.032968584,7.3940864,-0.048114482,6.7131643,-0.038210034,6.7699637,-0.040716782,7.223648,-0.015984844,7.3975506,-0.043353416,6.3500648,-0.04893935,7.050675,-0.05564312,7.165804,-0.061994776,5.4023094,-0.0782561,6.749944,-0.075900845,5.6248693,-0.10870755,6.603269,-0.106160626,5.650793,-0.118342705,6.4434376,-0.1254964,5.669138,-0.15596132,5.479339,-0.16153687,5.7989235,-0.20013654,5.8190145,-0.17733064,5.5305276,-0.20455325,5.2882953,-0.20931025
2026-03-04 16:16:22.6505,108.86,143087.08,6.3738884925842285,5.1273518,0.27090746,5.274683,0.22452343,5.47641,0.20461486,5.8556666,0.18881921,5.1843743,0.19179006,5.512733,0.17566344,5.8630233,0.16014351,5.8357563,0.15703078,6.411761,0.12878947,5.6659284,0.09788698,6.1740084,0.11179066,6.851714,0.092648536,6.0256705,0.08161687,6.26882,0.081137955,6.6149077,0.078898914,8.119196,0.057894316,5.4014883,0.0617439,4.9415464,0.102218665,5.990208,0.05072262,7.5753236,0.04428067,7.297365,0.046820287,7.3892045,0.021447994,6.138587,0.056375418,5.8163505,0.029017724,8.144177,0.010505282,6.7801676,0.008301366,6.344189,0.0025175095,8.525055,0.00039848505,6.955773,-0.015577848,7.5307965,-0.019692723,6.4059563,-0.009917323,7.3702364,-0.03596841,7.434034,-0.050947983,6.758837,-0.04454186,6.6898804,-0.050299115,7.3295407,-0.017775627,7.4469485,-0.039165355,6.419755,-0.043571282,7.012922,-0.05658807,7.074747,-0.063130215,5.5007567,-0.08683112,6.7337008,-0.07774202,5.712028,-0.11247038,6.5744042,-0.10577858,5.7310815,-0.11971181,6.442946,-0.12825519,5.709968,-0.1618552,5.4064145,-0.17442304,5.9046354,-0.20631926,5.8943434,-0.17325635,5.5389433,-0.21153958,5.2578917,-0.20486218
2026-03-04 16:16:22.6553,111.18,143086.14,6.376787185668945,5.112946,0.25909287,5.292647,0.21734598,5.4188046,0.19197826,5.9171243,0.17470877,5.1650567,0.16741352,5.570714,0.16573568,5.925324,0.15888326,5.8508005,0.15064718,6.3938937,0.12506372,5.594437,0.09442254,6.1996984,0.09529616,6.878399,0.08706184,6.001781,0.07320024,6.2304406,0.07381971,6.6964517,0.06701224,8.075679,0.049673617,5.485495,0.050679743,4.913561,0.08406162,6.097333,0.050095145,7.6478543,0.043352216,7.2990007,0.045374926,7.346026,0.020262131,6.098748,0.051409144,5.864817,0.015158875,8.091973,0.0031174812,6.851801,0.00011032225,6.34523,0.0029025557,8.4432125,-0.008256242,6.977171,-0.024290897,7.482831,-0.033297423,6.549695,-0.013391365,7.4277644,-0.03972915,7.3986697,-0.04433399,6.7384024,-0.046360463,6.675291,-0.044542737,7.231282,-0.010232268,7.4692597,-0.052315846,6.3830404,-0.04582305,6.996393,-0.0648478,7.049523,-0.06614735,5.4326487,-0.098199695,6.740425,-0.087760285,5.681046,-0.12865637,6.7094774,-0.1107182,5.742875,-0.12076212,6.4599733,-0.119067684,5.6604877,-0.16371763,5.436294,-0.16692142,5.8429356,-0.20290051,5.8950715,-0.18315151,5.544408,-0.20922181,5.258699,-0.2126024
2026-03-04 16:16:22.6652,118.14,143084.12,6.378129005432129,5.0979524,0.26703054,5.3555164,0.21995953,5.3494062,0.20100544,5.954221,0.17898548,5.0987344,0.18448801,5.634829,0.18015847,5.884114,0.15109324,5.842539,0.1521753,6.405835,0.12384686,5.509501,0.09922494,6.136728,0.09706329,6.8271437,0.09111749,6.03549,0.07980852,6.298987,0.08573899,6.8148327,0.07394669,7.975274,0.051752903,5.5405474,0.047733042,4.8645844,0.107637495,6.134016,0.05756453,7.643056,0.034530606,7.298659,0.048944145,7.349097,0.02275784,6.004496,0.06483714,5.816275,0.030379307,8.124461,0.010156731,6.905176,0.012325833,6.4736238,0.007403682,8.347503,-0.0020774342,7.1049013,-0.01946205,7.4340863,-0.025738748,6.5966682,-0.008055088,7.3915706,-0.036708526,7.5037994,-0.049352974,6.721766,-0.046646927,6.7541947,-0.046725623,7.1401167,-0.011147979,7.438067,-0.03478168,6.4043984,-0.038024545,7.0632253,-0.053233586,7.2427955,-0.06365614,5.3274493,-0.088910416,6.7867994,-0.08066396,5.588803,-0.116115734,6.7126055,-0.09939428,5.7146726,-0.1176317,6.444368,-0.12703271,5.657572,-0.1603594,5.4722605,-0.16795003,5.7532225,-0.20543143,5.8642783,-0.16854936,5.497027,-0.20195656,5.32545,-0.19901976
2026-03-04 16:16:22.6702,118.14,143084.12,6.37626314163208,5.068819,0.25039443,5.325352,0.20651007,5.416685,0.17993249,5.951317,0.1716177,5.0921493,0.18239325,5.613153,0.1627632,5.887058,0.14912538,5.822433,0.15794428,6.423583,0.12138166,5.5884385,0.08583763,6.160748,0.08741629,6.8987646,0.06549586,6.0303063,0.053195186,6.235175,0.0596571,6.7558317,0.06963469,8.0288925,0.040540233,5.5058994,0.0454012,4.8865504,0.09743831,6.1048417,0.044816528,7.591419,0.038330536,7.2972817,0.0510532,7.3614407,0.018204927,6.0826993,0.05015579,5.806626,0.019001026,8.132038,-0.010335032,6.8283935,-0.009379228,6.4382973,0.009070138,8.389994,-0.010226395,7.039451,-0.020335725,7.4624248,-0.019520545,6.5573635,-0.017209567,7.370258,-0.03206148,7.4530506,-0.04814323,6.7351584,-0.042420633,6.729776,-0.044998925,7.2252336,-0.023046587,7.4319425,-0.04776159,6.429019,-0.066331334,7.0086446,-0.06672817,7.1525292,-0.060342267,5.367425,-0.09507886,6.7622905,-0.077578396,5.645139,-0.11046998,6.7067223,-0.1123124,5.7075205,-0.11083365,6.436591,-0.12180118,5.651049,-0.14952417,5.4666457,-0.15967983,5.8057537,-0.2077313,5.8610706,-0.18022428,5.541308,-0.22081049,5.295075,-0.2064375
2026-03-04 16:16:22.6803,122.22,143083.12,6.377769470214844,5.078723,0.26175973,5.3323,0.2156568,5.396904,0.19468157,5.930017,0.17527503,5.0871477,0.17347234,5.585054,0.17337605,5.892234,0.14702602,5.795249,0.14270842,6.404553,0.12298628,5.5468893,0.08730066,6.1901417,0.095251136,6.8619895,0.08182173,6.0400677,0.08002375,6.275553,0.07693474,6.7523656,0.06877358,8.0051775,0.05483767,5.496042,0.050474152,4.90747,0.09053464,6.123179,0.05851877,7.643061,0.037795514,7.295962,0.047201466,7.365806,0.021490948,6.049634,0.05591082,5.8441706,0.03181222,8.108535,0.004421993,6.8642125,0.010801141,6.4449515,0.00199464,8.366379,-0.0015941494,7.049818,-0.018142514,7.5103874,-0.021333218,6.601901,-0.007392743,7.3658605,-0.03149605,7.495117,-0.048576783,6.680685,-0.044001926,6.737373,-0.038479727,7.147443,-0.012500197,7.473639,-0.039858956,6.386258,-0.041341968,7.057911,-0.050302174,7.1805053,-0.066644475,5.3634534,-0.08668677,6.7206097,-0.07289751,5.676514,-0.11121239,6.7230525,-0.10274921,5.705503,-0.11573837,6.4888825,-0.12302092,5.616431,-0.15883318,5.46815,-0.15915835,5.7947135,-0.19133766,5.884949,-0.17002794,5.5116534,-0.19595751,5.3194265,-0.20108056
2026-03-04 16:16:22.6856,122.22,143083.12,6.360358238220215,5.1005015,0.24942382,5.3390484,0.21129295,5.3808618,0.18168262,5.9550586,0.16763139,5.081391,0.1640985,5.5664315,0.16203794,5.8576593,0.14973295,5.8038173,0.15080728,6.404635,0.12027599,5.5693655,0.090528175,6.126223,0.09789266,6.8318954,0.07811893,6.052337,0.077603385,6.271316,0.071356975,6.722711,0.06689275,8.012808,0.042864647,5.4890366,0.046005417,4.8684287,0.089618824,6.0572867,0.049848523,7.5811276,0.039133135,7.277287,0.05207102,7.3482094,0.020083569,6.0244365,0.058705922,5.772245,0.024193777,8.076627,0.0051177423,6.851721,0.008538495,6.421321,-0.00018138548,8.354019,-0.008269939,7.023624,-0.01778388,7.469998,-0.035500478,6.551407,-0.020044742,7.3523083,-0.036450144,7.4389963,-0.040679444,6.6877184,-0.04189448,6.6951313,-0.04732633,7.174543,-0.013782806,7.389256,-0.04297182,6.3616295,-0.04615252,7.0396514,-0.056284133,7.174691,-0.066178754,5.36995,-0.09979036,6.739625,-0.08345117,5.6413713,-0.113196135,6.698423,-0.11462903,5.7044215,-0.12089813,6.4843297,-0.120270096,5.637391,-0.15891464,5.4624953,-0.17073652,5.8114867,-0.19750704,5.8358946,-0.17378497,5.5112257,-0.21142468,5.2852354,-0.20166664
2026-03-04 16:16:22.6961,134.43,143078.92,6.374421119689941,5.1397743,0.26499084,5.2298403,0.22938378,5.486273,0.20704605,5.8942595,0.1873821,5.197542,0.18490867,5.5646253,0.17707053,5.9199295,0.16163243,5.81448,0.15110368,6.360532,0.13270302,5.638923,0.08856441,6.2125854,0.09572484,6.837076,0.08177805,6.060982,0.06882527,6.242907,0.07467308,6.5939026,0.07667097,8.092172,0.054040316,5.406585,0.05513666,4.9335504,0.10308436,6.061642,0.054272052,7.6292562,0.04465378,7.3049383,0.047529478,7.3399377,0.028508717,6.096965,0.04832588,5.8884783,0.023851587,8.083198,0.002065842,6.8250914,0.0028664903,6.311715,0.0046523544,8.475434,0.0036694827,6.9572806,-0.012367827,7.532168,-0.019572511,6.4725857,-0.011139424,7.44549,-0.031025523,7.4697013,-0.050416995,6.7183137,-0.047700007,6.652279,-0.04186152,7.2526345,-0.017623639,7.4475985,-0.04408571,6.391242,-0.05539086,7.0395136,-0.06252621,7.024142,-0.06387277,5.494498,-0.08639747,6.6983805,-0.07333389,5.699845,-0.107807696,6.6397176,-0.108118534,5.79589,-0.11860701,6.4718,-0.12502733,5.6779075,-0.16708992,5.385269,-0.16213483,5.88135,-0.2075887,5.901784,-0.1801495,5.5151863,-0.22011329,5.262736,-0.21597055
2026-03-04 16:16:22.7056,127.13,143074.41,6.3774638175964355,5.1625247,0.25531814,5.208568,0.22145212,5.564379,0.2059933,5.793687,0.17934355,5.288678,0.1814447,5.456262,0.17570677,5.844371,0.16860586,5.876155,0.16152324,6.382582,0.1437723,5.741056,0.098216705,6.1899137,0.09234643,6.8566895,0.08324361,6.0134363,0.072081104,6.292339,0.06834808,6.5287924,0.07383098,8.204796,0.050876062,5.357254,0.046418793,4.9994717,0.084324315,5.9252048,0.056252718,7.583355,0.044518217,7.344534,0.052746546,7.363446,0.02857531,6.2305684,0.057489302,5.837145,0.013510692,8.120213,-0.003217838,6.7313,-0.002891059,6.2299085,-0.0008938724,8.582791,-0.0051046177,6.9129653,-0.02211666,7.602651,-0.036460944,6.274123,-0.022051016,7.4004936,-0.032273624,7.4671655,-0.044707168,6.813043,-0.03515934,6.6555595,-0.046282154,7.4314485,-0.017879125,7.4015517,-0.054129317,6.3919806,-0.050570518,7.0525265,-0.07415399,6.974668,-0.068316765,5.6303563,-0.1019818,6.6911626,-0.09684735,5.748263,-0.13340476,6.4914002,-0.1172303,5.7712274,-0.12628426,6.419846,-0.12642054,5.686945,-0.16918077,5.4066277,-0.17070283,5.992401,-0.21440616,5.8950896,-0.19712806,5.5381265,-0.22672549,5.2690907,-0.2243459
2026-03-04 16:16:22.7155,123.38,143072.67,6.379755020141602,5.0716834,0.257081,5.351641,0.22322452,5.3648753,0.19604988,5.969953,0.18115078,5.1241302,0.17830184,5.555591,0.1722257,5.8768463,0.15464458,5.8348465,0.15881847,6.4243813,0.12935159,5.532836,0.093360074,6.203749,0.10066178,6.872592,0.07989767,6.0074267,0.069756515,6.2428226,0.07499853,6.746747,0.070359714,8.00893,0.052607037,5.521461,0.045875408,4.8653235,0.10379905,6.117672,0.05681956,7.6355286,0.03961153,7.307131,0.050320372,7.3650446,0.023162905,6.0787263,0.05312651,5.86206,0.02000704,8.092733,0.0021014418,6.858376,0.0010179166,6.4359574,0.0022910915,8.386171,-0.0009933574,7.0879726,-0.022739258,7.480634,-0.023837632,6.5804873,-0.015499161,7.3943796,-0.03330637,7.469948,-0.04819965,6.7233953,-0.043924365,6.696661,-0.0390193,7.193039,-0.016568754,7.4413147,-0.046326518,6.388643,-0.059571024,7.022603,-0.06344246,7.1755204,-0.06603933,5.3895864,-0.09644044,6.7636447,-0.078549415,5.65447,-0.114961565,6.6949496,-0.10872172,5.7163835,-0.11286201,6.474448,-0.12441122,5.680243,-0.15814425,5.4361715,-0.16601712,5.8315034,-0.20688738,5.884938,-0.18734592,5.544525,-0.21226095,5.306508,-0.2149815
2026-03-04 16:16:22.7205,123.38,143072.67,6.374888896942139,5.111784,0.27578032,5.2938848,0.23415673,5.4874086,0.21613228,5.87965,0.19623408,5.187435,0.19127457,5.5364637,0.18116944,5.894491,0.15894672,5.8322062,0.150094,6.392519,0.1308717,5.619254,0.09938479,6.2003884,0.11791453,6.8443575,0.10160018,6.026846,0.0886567,6.2470937,0.090176284,6.670195,0.078122504,8.090324,0.069168,5.4401274,0.06771584,4.963072,0.10746543,6.019869,0.0572549,7.612733,0.045529693,7.2862463,0.04279591,7.354024,0.026270568,6.1214285,0.06216267,5.813161,0.043781728,8.1131935,0.017388642,6.8186584,0.016572764,6.330684,0.0052377265,8.486644,0.008172486,6.9763536,-0.008665438,7.540258,-0.016637705,6.470805,-0.005156344,7.3627086,-0.03840175,7.424797,-0.05229639,6.75226,-0.051305126,6.708487,-0.05067587,7.331344,-0.007839232,7.435895,-0.02639814,6.401413,-0.031883344,7.0207353,-0.04610704,7.0350103,-0.05451625,5.500957,-0.07514207,6.7053304,-0.07209446,5.709121,-0.10788896,6.617141,-0.09891237,5.710608,-0.12069534,6.4205832,-0.12736554,5.6576185,-0.16977845,5.4375505,-0.16906181,5.8938355,-0.19831376,5.9024353,-0.16455607,5.51141,-0.19963299,5.293423,-0.19587897
2026-03-04 16:16:22.7254,123.38,143072.67,6.37611722946167,5.1344485,0.26682097,5.2316318,0.22213943,5.489857,0.2037956,5.8703523,0.18596384,5.207542,0.18651178,5.537086,0.17447774,5.933978,0.15864804,5.823115,0.15351544,6.3463993,0.1345969,5.6815906,0.09076968,6.212129,0.099245444,6.867063,0.077643774,6.0266223,0.07457836,6.2165074,0.07457483,6.5792885,0.06795583,8.129773,0.054049637,5.381657,0.054570884,4.9727125,0.10724774,6.0155163,0.046183497,7.6422157,0.043176316,7.29226,0.050657403,7.3127794,0.026916018,6.15503,0.051627997,5.8572063,0.02079164,8.132638,-0.0074009807,6.7636647,-0.0007973089,6.2709785,0.0017178674,8.494346,-0.009416988,6.904,-0.014346683,7.5968304,-0.018736675,6.4778214,-0.020932306,7.428638,-0.034878355,7.4718933,-0.049677294,6.783061,-0.042257857,6.677206,-0.048079815,7.3384204,-0.025452191,7.466308,-0.045554526,6.407537,-0.061124086,6.987475,-0.06522629,7.0247564,-0.06457827,5.503444,-0.090835735,6.6820383,-0.08285433,5.77548,-0.1139787,6.634146,-0.11455698,5.7608895,-0.12025696,6.4492726,-0.1310094,5.6682982,-0.16303346,5.3907423,-0.17363286,5.89982,-0.21432759,5.915278,-0.18268879,5.4981546,-0.22511874,5.2381744,-0.21243472
2026-03-04 16:16:22.7304,123.38,143072.67,6.375829219818115,5.105263,0.27313045,5.271744,0.21721935,5.4275613,0.1945863,5.9368734,0.17773075,5.1405396,0.16994469,5.5022073,0.18675636,5.918414,0.1470031,5.804659,0.14860499,6.4333706,0.11789931,5.5786157,0.10510617,6.1254835,0.10206942,6.848695,0.09605279,6.038066,0.095478095,6.3118696,0.09006444,6.7313924,0.07074173,8.023824,0.051546115,5.469545,0.04869913,4.9287486,0.09016432,6.0362453,0.06978293,7.6291785,0.03141987,7.291801,0.04252619,7.402207,0.01848958,6.0748878,0.065203816,5.810651,0.040891323,8.14919,0.017375458,6.8699493,0.020787925,6.4583464,-0.0023040068,8.35058,-0.00095310854,6.9637084,-0.023175916,7.5115504,-0.028029433,6.5115166,0.00051178486,7.3511147,-0.04070469,7.4953747,-0.054282125,6.6678033,-0.04753426,6.82144,-0.045839157,7.2213373,-0.0094885165,7.406849,-0.03536597,6.434307,-0.027608367,7.0805316,-0.04522111,7.1721826,-0.063411474,5.3805933,-0.08511635,6.730331,-0.08146566,5.6954904,-0.12297619,6.6864023,-0.09876081,5.6755624,-0.12432898,6.51575,-0.12351345,5.5621634,-0.15425856,5.511724,-0.1690375,5.8104405,-0.19635393,5.845292,-0.15906015,5.519687,-0.19311355,5.3020773,-0.19506308
2026-03-04 16:16:22.7355,123.38,143072.67,6.378482341766357,5.084449,0.26598808,5.2900457,0.21875909,5.428668,0.1977776,5.9250007,0.18735057,5.1825686,0.18260165,5.5295653,0.16941148,5.88307,0.15723607,5.8166976,0.15899223,6.4289503,0.13351099,5.6076517,0.09598773,6.1567345,0.09787393,6.901256,0.08892117,6.034326,0.079851836,6.292478,0.07955435,6.689896,0.075025894,8.071547,0.053566046,5.457993,0.060040034,4.927506,0.095710546,6.043655,0.051807642,7.579474,0.041767675,7.3121657,0.049099654,7.365118,0.02391987,6.122314,0.05211647,5.7613273,0.026875457,8.171663,0.0030666266,6.8660126,0.008624855,6.404921,0.0027696483,8.439929,-0.0051397164,7.0196905,-0.019048614,7.543629,-0.023306642,6.451372,-0.023240548,7.349634,-0.041338712,7.4490786,-0.04775627,6.7090025,-0.040595707,6.7687407,-0.04534658,7.262586,-0.02394651,7.412866,-0.04334817,6.442178,-0.04831454,7.0232697,-0.061694168,7.159461,-0.06417609,5.411396,-0.0974267,6.7388263,-0.08481332,5.7233853,-0.113662906,6.6624465,-0.114197865,5.731412,-0.12064046,6.451419,-0.12980124,5.6179366,-0.15966423,5.4956284,-0.17248784,5.8637323,-0.21409969,5.846328,-0.17576994,5.513073,-0.21651676,5.2590327,-0.21015769
2026-03-04 16:16:22.7456,124.33,143072.12,6.359042644500732,5.1061544,0.2653517,5.225021,0.22313495,5.4371853,0.20051327,5.853423,0.18551461,5.2032623,0.18159997,5.4854555,0.17336394,5.8465714,0.15336317,5.8284183,0.1515835,6.330651,0.12309303,5.6290646,0.1037636,6.190864,0.112308085,6.8253064,0.09566786,5.9932256,0.09710548,6.2667212,0.08200085,6.575996,0.07778304,8.097954,0.051674005,5.42829,0.053501558,4.909343,0.09821453,5.9883957,0.05264128,7.5860333,0.04195677,7.298488,0.05234508,7.330398,0.020389054,6.1103435,0.066559605,5.8599787,0.03475587,8.022266,0.00957795,6.753325,0.016613156,6.33258,0.006314214,8.50663,-0.005371166,6.9490457,-0.013702381,7.5366626,-0.02747289,6.4018974,-0.011611751,7.4074764,-0.037068624,7.407022,-0.046114914,6.7995234,-0.039615646,6.6552663,-0.052099124,7.290463,-0.009917696,7.406399,-0.03145529,6.3996024,-0.036273498,7.014481,-0.050815973,7.036217,-0.062259033,5.4849663,-0.099324755,6.7069154,-0.0872256,5.6794257,-0.11092007,6.6186934,-0.11153113,5.758363,-0.13005027,6.4474177,-0.12525249,5.6783977,-0.1632638,5.4196324,-0.1756449,5.87882,-0.1982011,5.883071,-0.17474377,5.528638,-0.20561536,5.2605295,-0.20762093
2026-03-04 16:16:22.7505,124.33,143072.12,6.380585670471191,5.1329618,0.26070958,5.329617,0.21017198,5.435269,0.19266973,5.953833,0.17051856,5.1428494,0.16712487,5.5018015,0.17582728,5.8640475,0.15218782,5.8260474,0.15140036,6.4590783,0.11748359,5.5684977,0.09687593,6.1196055,0.095070966,6.8472824,0.0925063,6.0404153,0.087292455,6.338716,0.07874168,6.74679,0.072739966,8.02178,0.04479083,5.44416,0.041445445,4.89576,0.08727468,6.0636873,0.056806404,7.5859623,0.03620258,7.3287168,0.047518615,7.4097023,0.014409684,6.0646214,0.062687516,5.778301,0.023361238,8.107641,0.009126599,6.8626895,0.009278059,6.4545283,-0.0027204454,8.451361,-0.007900989,7.023848,-0.027487796,7.505425,-0.033771917,6.470138,-0.013032882,7.3668323,-0.03863958,7.4806266,-0.04927336,6.698856,-0.037951358,6.7770925,-0.050624996,7.2475324,-0.015101481,7.3811994,-0.04515905,6.440748,-0.034255993,7.0803704,-0.0591223,7.185081,-0.065237895,5.4023814,-0.09997945,6.7349644,-0.084783375,5.67171,-0.12572618,6.658776,-0.11013237,5.678388,-0.119202584,6.4794536,-0.12135927,5.6583104,-0.15410292,5.5282755,-0.17175284,5.820745,-0.19814327,5.84185,-0.17520343,5.5371594,-0.20338821,5.3449607,-0.20391199
2026-03-04 16:16:22.7554,124.33,143072.12,6.373929023742676,5.1590195,0.26907122,5.282489,0.22554019,5.475129,0.20716599,5.8968287,0.1968266,5.197213,0.19117433,5.502065,0.17487499,5.849674,0.16137703,5.826283,0.15531757,6.4325576,0.12822717,5.6696086,0.08986071,6.1003942,0.10035038,6.8672805,0.07799396,6.033475,0.06602708,6.3018165,0.07326452,6.642582,0.077121034,8.109427,0.058288563,5.426534,0.060995374,5.0032163,0.10754931,5.9658127,0.053343073,7.564812,0.047955755,7.3103952,0.047172442,7.366282,0.026732795,6.155171,0.04570953,5.741212,0.024495099,8.176358,-0.0032525081,6.787961,-0.0070171133,6.3717804,0.009524054,8.462614,-0.0009889696,6.97504,-0.009365669,7.5549445,-0.017244387,6.4102426,-0.017611593,7.340958,-0.028574845,7.42225,-0.051267575,6.722392,-0.04421264,6.75226,-0.0473027,7.296485,-0.021250695,7.3785896,-0.042138558,6.414312,-0.060573973,7.048276,-0.06402572,7.095812,-0.0610778,5.45541,-0.08698783,6.733344,-0.07531447,5.7244782,-0.1099789,6.555061,-0.11326837,5.696732,-0.11970308,6.447166,-0.13365595,5.658432,-0.1668188,5.4663386,-0.16815802,5.9028926,-0.2180194,5.8841434,-0.17676716,5.5582614,-0.2215322,5.2725058,-0.21267222
2026-03-04 16:16:22.7656,126.2,143071.84,6.382700443267822,5.1115923,0.26239973,5.3234973,0.21411578,5.417816,0.20238721,5.9238324,0.1767722,5.181925,0.17413253,5.5746,0.17884333,5.8573856,0.15317799,5.8237967,0.15606183,6.4318666,0.12657404,5.610902,0.09406645,6.1672664,0.1013801,6.879985,0.085753486,6.0555735,0.08022354,6.271383,0.0695906,6.739168,0.07260685,8.095071,0.04841105,5.5049663,0.044194948,4.9206448,0.08731894,6.043375,0.05480949,7.5863657,0.043672737,7.292121,0.048001677,7.4200373,0.02036066,6.0989065,0.056974728,5.810622,0.01965507,8.112983,0.005544036,6.8239,0.0057697566,6.408794,0.00058128726,8.472259,-0.010991709,7.0172963,-0.027734734,7.496296,-0.033066723,6.456003,-0.01419449,7.400268,-0.041112162,7.434237,-0.050863076,6.7333536,-0.04433553,6.731924,-0.052206352,7.254672,-0.02379305,7.4337964,-0.050259992,6.420519,-0.0464688,7.0525537,-0.0619792,7.1475363,-0.067674,5.4257793,-0.10688606,6.750833,-0.0900803,5.6567273,-0.12599768,6.6170626,-0.114626825,5.709577,-0.12938835,6.45492,-0.12616451,5.6767635,-0.1672326,5.4783797,-0.17552577,5.8813605,-0.2102311,5.856298,-0.18399712,5.5494,-0.21604331,5.3042355,-0.2169506
2026-03-04 16:16:22.7806,133.46,143075.25,6.382303714752197,5.130471,0.25460288,5.2999845,0.21878403,5.418003,0.19520691,5.9403753,0.16195334,5.140856,0.16587594,5.563003,0.16882645,5.9030266,0.14689068,5.82517,0.14650954,6.3805785,0.121368825,5.58688,0.09107549,6.203646,0.096046895,6.866772,0.07834199,6.05777,0.07179835,6.2650437,0.0689363,6.7090845,0.071517475,8.028898,0.042286966,5.488452,0.032680187,4.8838463,0.07877863,6.118202,0.050775964,7.64661,0.039384417,7.2918596,0.046566624,7.382047,0.01766068,6.0317454,0.05869755,5.862165,0.013995644,8.060205,0.0010471664,6.8851767,-0.0064206636,6.4180527,-0.0011322098,8.408645,-0.0075827073,7.042785,-0.032253448,7.47825,-0.033913232,6.54377,-0.007341159,7.4468336,-0.030234978,7.487773,-0.044433955,6.709314,-0.04283422,6.6684213,-0.045317434,7.2006187,-0.009188595,7.4604297,-0.052702103,6.418175,-0.04998291,7.0273094,-0.06375302,7.136314,-0.06896431,5.3903975,-0.09633345,6.743143,-0.085818455,5.6256347,-0.1218592,6.711713,-0.11396702,5.7940936,-0.11694024,6.492478,-0.12259082,5.6631184,-0.16017286,5.4701676,-0.16472654,5.8443184,-0.19825855,5.8964853,-0.1849612,5.5358047,-0.20562768,5.2958746,-0.21298145
2026-03-04 16:16:22.7855,132.19,143076.84,6.383697986602783,5.1328635,0.26855144,5.3262734,0.2294421,5.4528556,0.21160045,5.9165096,0.18734503,5.1279726,0.18949737,5.5653825,0.1792579,5.8636146,0.15522845,5.8625426,0.1474161,6.3995605,0.12782721,5.59937,0.09489701,6.1879845,0.11264825,6.8197937,0.08993687,6.0804853,0.08411278,6.274786,0.08543527,6.709629,0.08040009,8.102666,0.05527953,5.4836254,0.062196493,4.9198294,0.09700751,6.076145,0.059180208,7.6359134,0.042381413,7.3255725,0.04191776,7.350931,0.019502897,6.071819,0.056416016,5.8676095,0.038970746,8.080469,0.012182295,6.8562765,0.007979083,6.391336,0.0006456566,8.430485,0.001952984,7.0402484,-0.00772123,7.4757895,-0.021857502,6.501311,-0.011526459,7.4212546,-0.036761865,7.4726334,-0.05023015,6.7655034,-0.046009533,6.6981406,-0.050624203,7.234398,-0.016150085,7.432209,-0.036352776,6.3967547,-0.03717523,7.061918,-0.055035055,7.1523323,-0.055627692,5.4777985,-0.08309375,6.767371,-0.08075873,5.6378403,-0.111152716,6.658724,-0.10800031,5.751782,-0.12315594,6.448639,-0.1263832,5.655437,-0.16710041,5.4094114,-0.17109437,5.8204875,-0.2045328,5.940051,-0.16834104,5.510752,-0.20768122,5.309197,-0.20661987
2026-03-04 16:16:22.7905,131.17,143078.53,6.3772478103637695,5.1085567,0.25938335,5.3788733,0.21701556,5.3979797,0.19607157,5.9343815,0.18365216,5.066199,0.18059088,5.5867605,0.16595206,5.860417,0.157681,5.8593597,0.1503308,6.456717,0.1303866,5.5172844,0.097777545,6.120024,0.09291703,6.834479,0.07431225,6.061176,0.06659293,6.344626,0.06855588,6.8468738,0.06829872,7.9921966,0.050305523,5.527801,0.051289942,4.8532696,0.092316896,6.0751767,0.04772881,7.611992,0.044412486,7.3025303,0.043280516,7.432385,0.02367314,5.99678,0.05668601,5.775777,0.01183337,8.073257,-0.003419106,6.9237347,-0.00393993,6.491967,0.0031665778,8.387741,-0.0029498287,7.086799,-0.018700104,7.3879666,-0.02870432,6.5364122,-0.016852181,7.320212,-0.033901297,7.474481,-0.045746975,6.6938944,-0.04724541,6.7906027,-0.047373068,7.1340756,-0.026107252,7.3970838,-0.04658002,6.401431,-0.064854704,7.1249385,-0.071388826,7.2576623,-0.07023965,5.3364043,-0.08770445,6.799461,-0.08228491,5.580306,-0.11020675,6.654695,-0.11806884,5.7146397,-0.12052125,6.4973855,-0.12867038,5.6163,-0.16437444,5.524502,-0.1667281,5.7459393,-0.21140389,5.8444147,-0.18285179,5.513524,-0.22204678,5.3654265,-0.22279
2026-03-04 16:16:22.8007,131.17,143078.53,6.3870849609375,5.178851,0.2698263,5.209694,0.22308809,5.473292,0.20690095,5.8544493,0.18921664,5.218414,0.18244407,5.568841,0.17285521,5.9478016,0.16603346,5.8606987,0.15977691,6.327484,0.13677464,5.7033978,0.10487227,6.289298,0.0979918,6.8613563,0.08319743,6.0387754,0.072924815,6.215258,0.07038905,6.548641,0.07084944,8.17054,0.054485716,5.3803287,0.058387812,4.9780364,0.088383794,6.058275,0.05219215,7.703931,0.051184803,7.3284683,0.043475457,7.3246717,0.026689254,6.158494,0.055527188,5.932607,0.0040542996,8.044725,-0.0066830805,6.7754993,-0.007594161,6.259994,-0.00024014697,8.542758,-0.012740227,6.942907,-0.02806025,7.5460086,-0.03495784,6.4811883,-0.021320572,7.511532,-0.033844918,7.425494,-0.052007925,6.763432,-0.041573647,6.617747,-0.051287424,7.3339715,-0.020401547,7.5454817,-0.057268966,6.3928866,-0.062083706,7.0156956,-0.07124453,6.988714,-0.07517327,5.5690713,-0.108967856,6.680533,-0.09684206,5.743207,-0.12985168,6.6362276,-0.12335854,5.8397226,-0.1255981,6.4518046,-0.13399237,5.674038,-0.17107491,5.3633547,-0.17577083,5.941622,-0.21854925,5.971274,-0.20156598,5.5378337,-0.23195755,5.2000637,-0.22812173
2026-03-04 16:16:22.8107,130.57,143080.38,6.383002281188965,5.17771,0.27135158,5.2255692,0.22270323,5.502521,0.20214593,5.8452315,0.19176365,5.2203636,0.19185774,5.52059,0.17483607,5.9586844,0.15540384,5.836769,0.15463546,6.3940325,0.13486154,5.646998,0.09551051,6.195666,0.0980956,6.8212757,0.08260974,6.1031866,0.0723468,6.2851834,0.07599897,6.630465,0.07338966,8.134605,0.051977355,5.371413,0.06362932,4.996409,0.10119859,5.9954076,0.062388964,7.669133,0.042232044,7.2781067,0.04557988,7.3764963,0.028976154,6.133987,0.052775443,5.874389,0.024718126,8.098895,0.003334443,6.8554597,0.0070235617,6.302218,0.0011615508,8.5157795,3.261682e-06,6.912984,-0.014672131,7.5672755,-0.019018557,6.4499516,-0.01757584,7.4342017,-0.032352768,7.5123053,-0.049068023,6.717821,-0.04196327,6.731237,-0.042538453,7.2833295,-0.02053038,7.4263253,-0.0415613,6.3854504,-0.05539978,7.087042,-0.059695575,7.0518,-0.062463086,5.493809,-0.086376876,6.6281834,-0.076739356,5.777299,-0.107318446,6.6067133,-0.11116321,5.766101,-0.11966451,6.460843,-0.12088944,5.627882,-0.16341776,5.4243355,-0.16645467,5.881388,-0.21241981,5.9059587,-0.17618532,5.521713,-0.21950649,5.295647,-0.21113022
2026-03-04 16:16:22.8206,128.92,143089.98,6.387491226196289,5.0783978,0.25318816,5.3079996,0.21323717,5.4441695,0.18410787,5.93991,0.17181115,5.1517544,0.16536154,5.5800114,0.16876788,5.921215,0.14784539,5.8404675,0.14901312,6.4331226,0.12287007,5.608023,0.098718904,6.168635,0.085443586,6.8875937,0.07443531,6.0728927,0.07292596,6.2502084,0.064500764,6.7461934,0.06460268,8.042269,0.040772982,5.4660144,0.045501,4.940582,0.08256427,6.092167,0.05546924,7.663751,0.037517007,7.273624,0.04592153,7.420267,0.02045282,6.075559,0.060645603,5.8361583,0.019004205,8.097834,-0.0062141395,6.879334,-5.239305e-05,6.428599,-0.0022985076,8.430647,-0.011473116,6.9657297,-0.027793273,7.5133343,-0.032813415,6.527006,-0.015874574,7.3801446,-0.03771572,7.5102882,-0.047656383,6.681087,-0.040798403,6.7512474,-0.04430949,7.2550125,-0.016703522,7.450931,-0.053816706,6.4104576,-0.05750925,7.0641403,-0.06916131,7.1377435,-0.068587035,5.424998,-0.094211996,6.7329354,-0.086175665,5.7080564,-0.12745725,6.680196,-0.11700464,5.737176,-0.122116394,6.4955554,-0.12255604,5.636746,-0.1544143,5.477963,-0.17194517,5.8231525,-0.20196499,5.8809924,-0.18089573,5.519375,-0.21457267,5.307859,-0.20735173
2026-03-04 16:16:22.8307,109.64,143094.31,6.38944149017334,5.11326,0.26429838,5.3454895,0.22134851,5.413824,0.19956815,5.9285264,0.17867613,5.1651607,0.17367366,5.5738406,0.17949557,5.8614516,0.14610912,5.8336024,0.14715162,6.436458,0.1213539,5.5993037,0.10113686,6.189185,0.101710774,6.846363,0.085885,6.0618634,0.0822671,6.2834344,0.0772887,6.728225,0.07295302,8.0714,0.04564278,5.5218525,0.05671653,4.898878,0.09288954,6.0634766,0.055683438,7.6005683,0.038983762,7.2691183,0.041223053,7.398854,0.021692194,6.088096,0.061240077,5.8223033,0.022948157,8.099138,0.0032148408,6.860882,0.010988471,6.424485,-0.0071357205,8.485003,-0.0066706175,7.028052,-0.022942556,7.4770503,-0.029793346,6.5290585,-0.013907194,7.3721395,-0.03564111,7.4604106,-0.051186353,6.735259,-0.040294085,6.722501,-0.050494816,7.221796,-0.015628595,7.4768515,-0.044823986,6.406975,-0.044038787,7.080468,-0.053714216,7.1635246,-0.06829295,5.4642544,-0.10250145,6.7816477,-0.08314254,5.628632,-0.115055956,6.6924896,-0.10906356,5.7360196,-0.12988721,6.4823284,-0.13368765,5.6985846,-0.16031036,5.475311,-0.16785078,5.8679614,-0.20697483,5.894131,-0.17928806,5.5439353,-0.20844023,5.3275046,-0.21404898
2026-03-04 16:16:22.8356,102.05,143092.75,6.389516830444336,5.127886,0.26061252,5.3218718,0.2124692,5.446074,0.19387461,5.9653935,0.1827829,5.1701126,0.17451693,5.5676045,0.16847475,5.90722,0.15289535,5.8400893,0.1514582,6.3625493,0.12962109,5.6344733,0.104056984,6.1902394,0.09664356,6.8811893,0.08355625,6.0167756,0.08466736,6.2362494,0.074386716,6.6374416,0.06678509,8.078364,0.049099497,5.513052,0.052419588,4.943417,0.090978675,6.0806317,0.05660667,7.6076336,0.03694314,7.320378,0.046280812,7.3443685,0.02198998,6.122557,0.06395483,5.8080173,0.022793284,8.122323,0.0008387616,6.8352485,0.013517538,6.383481,0.0021406768,8.47104,-0.006980065,7.01438,-0.024713155,7.53727,-0.03684183,6.5661707,-0.0135771595,7.4069633,-0.036242943,7.4661684,-0.04309635,6.7849917,-0.034258995,6.7106504,-0.04348764,7.2779145,-0.012483769,7.4878173,-0.04541374,6.4299097,-0.040654834,7.0248327,-0.05861182,7.0934157,-0.07126134,5.451946,-0.10056996,6.7283397,-0.08367485,5.698055,-0.11953942,6.723146,-0.11361926,5.7469606,-0.12701821,6.459818,-0.12995139,5.6745377,-0.15800713,5.4326587,-0.16999727,5.8903584,-0.20472169,5.9132433,-0.18203163,5.528131,-0.20733425,5.271555,-0.21326168
2026-03-04 16:16:22.8406,104.35,143090.5,6.396791934967041,5.131315,0.25625482,5.287409,0.21417616,5.4599056,0.19280836,5.875092,0.1841655,5.241663,0.17929865,5.5939274,0.16834642,5.889488,0.16127475,5.882976,0.1551248,6.3742185,0.12907453,5.70746,0.093467824,6.256442,0.09295604,6.875055,0.07537377,6.028556,0.06650396,6.2258964,0.064791635,6.591505,0.06427563,8.175997,0.050097365,5.499972,0.050137267,4.954659,0.0876591,6.069146,0.05669283,7.646543,0.042449024,7.3247414,0.04989695,7.37749,0.026880171,6.1826625,0.05151119,5.88465,0.009633926,8.102825,-0.010273836,6.7780924,-0.0018312315,6.305382,0.0028163677,8.54197,-0.010443584,6.988202,-0.01971263,7.5290318,-0.03455982,6.476104,-0.021474892,7.437159,-0.027435698,7.3956656,-0.04607534,6.817647,-0.04121852,6.6829805,-0.04833306,7.3914433,-0.018995028,7.509421,-0.05131171,6.403437,-0.056464147,7.0072207,-0.06883536,7.024959,-0.06770328,5.5460224,-0.10440273,6.7617087,-0.08780991,5.7124305,-0.11866939,6.639857,-0.11313573,5.7945757,-0.12386841,6.4296484,-0.12457556,5.758661,-0.16064538,5.41153,-0.16881979,5.960945,-0.21240412,5.940478,-0.19069539,5.523472,-0.2259897,5.225568,-0.21861844
2026-03-04 16:16:22.8506,122.17,143084.75,6.390961170196533,5.090072,0.2774453,5.391375,0.22813404,5.4295106,0.2041167,5.951857,0.19395979,5.102572,0.18892041,5.634465,0.1832848,5.915937,0.15327057,5.8516827,0.15331934,6.3747416,0.13156232,5.5853825,0.09820189,6.2010574,0.11176419,6.8964806,0.09182626,6.0558,0.087190256,6.269014,0.08813201,6.759732,0.07828926,8.059388,0.059078112,5.4909606,0.063411,4.89736,0.110126935,6.143191,0.05560557,7.631431,0.039286967,7.3009076,0.04513473,7.3783183,0.021807477,6.041533,0.050793365,5.842025,0.03739447,8.146094,0.0131854545,6.8670926,0.010989773,6.4248486,0.0072140177,8.418028,0.0028828117,7.1036105,-0.007213123,7.476642,-0.017532611,6.586338,-0.012054074,7.3880773,-0.039461475,7.4410787,-0.05340535,6.791132,-0.04995138,6.769251,-0.053161085,7.2296185,-0.012826052,7.463445,-0.028299352,6.426147,-0.04194027,7.002361,-0.048631057,7.1942134,-0.059556022,5.3945556,-0.08410315,6.8232946,-0.07239713,5.655137,-0.10857704,6.6879363,-0.105084546,5.699446,-0.11946778,6.444051,-0.121199735,5.6249056,-0.16600421,5.451636,-0.17341875,5.793723,-0.20784774,5.9281154,-0.16371529,5.5069013,-0.20702744,5.2975388,-0.19747815
2026-03-04 16:16:22.8557,124.33,143083.86,6.398148536682129,5.127754,0.25458252,5.3274884,0.21571305,5.447948,0.19792137,5.945421,0.18144119,5.181095,0.17810892,5.623433,0.16726041,5.9095,0.15830934,5.860125,0.15962753,6.389131,0.12964852,5.6462812,0.10107193,6.188893,0.09094288,6.916611,0.07427,6.0529237,0.0741761,6.239185,0.06215302,6.6810513,0.07053635,8.114141,0.046846196,5.4829564,0.04980918,4.915843,0.08699352,6.0942273,0.043445133,7.6706963,0.046447527,7.3100686,0.04724103,7.3781595,0.023978114,6.083923,0.05279268,5.8224745,0.008438834,8.126886,-0.00993576,6.8562984,-0.0007417222,6.406909,-0.0027716078,8.5034685,-0.01941894,7.0311437,-0.02088224,7.4859023,-0.03588842,6.526262,-0.023225456,7.438807,-0.03495882,7.449129,-0.047329474,6.784171,-0.040468376,6.7136455,-0.050110582,7.2905803,-0.019096062,7.487105,-0.059628792,6.42815,-0.062148955,7.0399394,-0.0707822,7.1137705,-0.07239971,5.4609194,-0.11173156,6.7839346,-0.09446277,5.6473827,-0.121511444,6.690572,-0.12145782,5.784755,-0.13126552,6.463002,-0.13048767,5.716631,-0.16516924,5.407076,-0.1763688,5.90761,-0.21346414,5.920382,-0.19338056,5.550487,-0.23336448,5.279494,-0.2251673
2026-03-04 16:16:22.8656,124.01,143082.39,6.390263080596924,5.1963344,0.26822552,5.257106,0.22271708,5.517183,0.20977852,5.8271675,0.18813185,5.255687,0.17921464,5.4820895,0.17590962,5.869327,0.16460976,5.878888,0.15606652,6.428541,0.13782737,5.700502,0.1009979,6.1480856,0.101637155,6.8718514,0.08813552,6.0766997,0.07928834,6.296527,0.08234216,6.5919023,0.07145895,8.169697,0.055215396,5.3904734,0.05835521,4.984486,0.087447904,5.93823,0.055834267,7.5875516,0.049500514,7.3366823,0.049544286,7.406902,0.027576776,6.1867113,0.062175553,5.8188357,0.01894465,8.128094,0.0037361528,6.7735915,0.000840684,6.2950397,0.0023276363,8.602,-0.004085389,6.9477987,-0.022322224,7.612022,-0.034804698,6.333382,-0.015882205,7.429528,-0.034106333,7.4684215,-0.050148558,6.752303,-0.043924578,6.708175,-0.048784394,7.3793144,-0.016302194,7.419903,-0.045158006,6.4167366,-0.0536115,7.0989466,-0.059307694,7.0460234,-0.069987066,5.5692153,-0.109413244,6.6771417,-0.09368931,5.7410345,-0.11756238,6.5500293,-0.115523346,5.768072,-0.13384661,6.4965267,-0.124829665,5.7012615,-0.16926953,5.446543,-0.17288202,5.9699106,-0.20963448,5.909358,-0.18789338,5.5416684,-0.21879098,5.2941732,-0.21871227
2026-03-04 16:16:22.8709,121.8,143082.33,6.395692825317383,5.0908084,0.25245336,5.362562,0.21022567,5.38444,0.18417081,5.9955044,0.17125553,5.128,0.16653797,5.6319003,0.16292101,5.92618,0.1550638,5.8596053,0.14439318,6.4290967,0.12573422,5.5753193,0.086802885,6.2113214,0.074707426,6.8792114,0.064173244,6.061356,0.058419667,6.2438107,0.057904966,6.756903,0.058100704,8.0122175,0.043770567,5.5263143,0.041807722,4.89589,0.08127408,6.156863,0.04870161,7.6405625,0.042170424,7.3123126,0.043124486,7.34175,0.025350392,6.0594554,0.050102275,5.8229556,0.003613686,8.136717,-0.016672531,6.8756175,-0.0122393295,6.4642515,-0.0048661563,8.39161,-0.01041816,7.1140466,-0.026381083,7.4469085,-0.035508044,6.596711,-0.022198481,7.4000416,-0.036003,7.441176,-0.047197524,6.770853,-0.043483973,6.7190332,-0.037288174,7.2086453,-0.028454902,7.473415,-0.06122797,6.4179187,-0.06493718,7.0151567,-0.07622502,7.196074,-0.07579648,5.359898,-0.09256362,6.8140335,-0.081090674,5.6824913,-0.119111456,6.744421,-0.113515,5.769803,-0.11463018,6.4962373,-0.12549756,5.6663456,-0.15674436,5.458405,-0.1593417,5.8173146,-0.21408781,5.909907,-0.19115512,5.5494914,-0.22378205,5.3351526,-0.22352248
2026-03-04 16:16:22.8757,115.64,143082.19,6.3915815353393555,5.124087,0.25447,5.3234158,0.2191972,5.4053144,0.1892092,5.940471,0.17527337,5.1245723,0.17819022,5.577106,0.17041993,5.9189663,0.15079804,5.8409195,0.15993632,6.425361,0.11947562,5.605912,0.08364005,6.179876,0.0861227,6.8717623,0.068287775,6.0306363,0.054501656,6.3150387,0.06106034,6.7554317,0.06945529,8.043989,0.04838218,5.4692388,0.03976534,4.930723,0.09291177,6.097948,0.04334833,7.5837493,0.042448968,7.3327937,0.050117765,7.417462,0.019852329,6.105877,0.046135258,5.83474,0.010262657,8.112259,-0.012075742,6.856961,-0.007658364,6.4519496,0.0077954335,8.436733,-0.011278568,7.035428,-0.028736942,7.528183,-0.02577385,6.523705,-0.020456685,7.370153,-0.03150962,7.4894633,-0.050194167,6.7668676,-0.0419511,6.739323,-0.041619066,7.2376595,-0.02354446,7.4446945,-0.053615466,6.4304323,-0.070446186,7.0609875,-0.07466803,7.1841116,-0.0681444,5.3905997,-0.09966023,6.7957497,-0.08219248,5.6676083,-0.117096104,6.6936574,-0.11470109,5.706502,-0.117945775,6.5062857,-0.130377,5.651841,-0.15847164,5.4756165,-0.16641766,5.830961,-0.21489207,5.857257,-0.19330469,5.5423584,-0.22467643,5.319495,-0.2205531
2026-03-04 16:16:22.8808,112.3,143082.42,6.397054195404053,5.1090865,0.26973477,5.3550406,0.21444549,5.404098,0.19204578,5.966957,0.17892759,5.15184,0.18030468,5.6427526,0.17188482,5.9227314,0.15621415,5.8654146,0.16014326,6.3831306,0.12650786,5.5987206,0.10757143,6.207684,0.10426725,6.884957,0.091640875,6.044994,0.08702579,6.239288,0.08034356,6.7188854,0.07651029,8.047573,0.04743173,5.5321646,0.0538297,4.90938,0.09481777,6.151663,0.050778657,7.677826,0.03888275,7.3219466,0.053961504,7.3310294,0.017256498,6.1043983,0.06392197,5.8469872,0.034255028,8.138313,0.008582214,6.8687067,0.017404266,6.370832,0.003662923,8.395264,-0.0026448183,7.133734,-0.01996844,7.482185,-0.02353005,6.551182,-0.0122005455,7.433098,-0.039419133,7.458315,-0.048686583,6.773918,-0.039560385,6.6948066,-0.04709992,7.247046,-0.011209645,7.480956,-0.038658712,6.416139,-0.033249773,7.030735,-0.048643935,7.1636267,-0.063963525,5.421869,-0.09655234,6.8171797,-0.081973836,5.651846,-0.11377055,6.725295,-0.1076366,5.759188,-0.120675266,6.4852657,-0.122266375,5.668944,-0.15954462,5.4303946,-0.17188579,5.8151593,-0.20426132,5.9414053,-0.16769291,5.5407186,-0.20812814,5.332157,-0.19375902
2026-03-04 16:16:22.8860,112.3,143082.42,6.395101070404053,5.129107,0.27262118,5.2963862,0.22308533,5.4738007,0.20830022,5.907609,0.18692313,5.262317,0.1838641,5.555643,0.17993215,5.8644423,0.16301464,5.8519745,0.1589488,6.397454,0.13559379,5.6854763,0.10372287,6.225608,0.10190176,6.910622,0.091061644,5.994293,0.08024277,6.229537,0.07693554,6.6317415,0.073965125,8.140701,0.055791423,5.4415164,0.052783083,4.995792,0.0928442,6.0357294,0.059578415,7.638943,0.047107507,7.29455,0.049004845,7.372386,0.027801516,6.1947327,0.05388429,5.815121,0.021994367,8.161766,0.0055879094,6.7494464,0.001597589,6.2860317,-0.00073615066,8.58241,-0.0032562278,7.012561,-0.026437536,7.560041,-0.029994026,6.4130683,-0.017080506,7.455563,-0.031012157,7.401221,-0.05490237,6.83729,-0.04196519,6.684797,-0.053186968,7.373531,-0.019155663,7.47503,-0.0447214,6.477232,-0.04523281,7.0098996,-0.063413374,7.0577707,-0.06418135,5.5233626,-0.09812689,6.7891407,-0.094853446,5.7470527,-0.11583631,6.5898504,-0.11089506,5.7888184,-0.123429686,6.4293833,-0.1276175,5.7022653,-0.16699535,5.4105353,-0.17739403,5.9517374,-0.21013868,5.9071245,-0.18449058,5.5641823,-0.2226594,5.258637,-0.2178926
2026-03-04 16:16:22.8964,105.08,143083.98,6.392740249633789,5.141307,0.2720635,5.301989,0.22918136,5.470066,0.21238372,5.9251246,0.18496886,5.1946487,0.18838574,5.5647893,0.18210438,5.916351,0.15207854,5.8124967,0.15684983,6.4233823,0.12791984,5.634794,0.10134438,6.1988473,0.11195014,6.864514,0.08564797,6.0313883,0.08252221,6.276362,0.084470965,6.664705,0.07592403,8.072886,0.059062455,5.4738865,0.0663536,4.985054,0.10448011,6.0647936,0.053459357,7.6525865,0.041851204,7.3180075,0.04286677,7.3865204,0.023098573,6.132774,0.058694046,5.878458,0.036752693,8.152879,0.010223422,6.821806,0.010884252,6.409019,0.0068713734,8.444166,-0.0009640743,6.992783,-0.013091207,7.5573235,-0.014700202,6.513964,-0.010077428,7.411577,-0.0322483,7.4564676,-0.053544577,6.7412243,-0.050394982,6.722579,-0.050599903,7.291705,-0.014275393,7.4657173,-0.03360103,6.4314413,-0.047590036,7.0246153,-0.04928066,7.1067066,-0.05959007,5.452922,-0.08768829,6.7530537,-0.07299379,5.6976576,-0.10222938,6.658161,-0.1096656,5.7682858,-0.12307206,6.496879,-0.1291855,5.6597066,-0.16487008,5.4564095,-0.17034386,5.8392444,-0.20565714,5.891695,-0.16992144,5.5221214,-0.20835024,5.2966456,-0.2073017
2026-03-04 16:16:22.9014,104.58,143084.25,6.392874717712402,5.1226306,0.27261755,5.3144197,0.22215597,5.468772,0.20562829,5.924656,0.18486267,5.1729198,0.18090494,5.5732007,0.17999126,5.8868146,0.15976225,5.874015,0.15397009,6.382349,0.13358286,5.670711,0.10380339,6.222364,0.100824736,6.8811364,0.0864022,6.034749,0.08276908,6.2341976,0.0784845,6.6553254,0.071662635,8.134494,0.056752235,5.4897723,0.054237604,4.928996,0.08842046,6.070384,0.050394114,7.587129,0.042330604,7.34269,0.052309778,7.3594594,0.026954785,6.161875,0.058919184,5.8442945,0.025126439,8.126672,0.005708086,6.839239,0.005441813,6.3161826,0.0034641293,8.496099,-0.0034131464,7.032774,-0.019199712,7.5221577,-0.033906274,6.488694,-0.01339568,7.4229407,-0.03697263,7.442364,-0.05179681,6.801567,-0.043219678,6.6700206,-0.046255194,7.3330913,-0.016250733,7.4706163,-0.04464964,6.412176,-0.04457339,7.032889,-0.058816504,7.115438,-0.06436209,5.505945,-0.0901088,6.757594,-0.08676007,5.6865907,-0.122350305,6.6160803,-0.11036894,5.7506986,-0.13169387,6.4472218,-0.12913293,5.718452,-0.16397266,5.424258,-0.17173187,5.908835,-0.20686717,5.9181924,-0.18175603,5.549946,-0.21260431,5.2853756,-0.21391723
2026-03-04 16:16:22.9059,106.89,143085.0,6.391726016998291,5.0917435,0.265326,5.2756457,0.21706982,5.4730687,0.19687097,5.923145,0.1854262,5.1707892,0.17983957,5.6280746,0.17493212,5.941402,0.15605053,5.8589215,0.14854717,6.346172,0.1356784,5.6548977,0.09568411,6.2606893,0.085128345,6.877365,0.07242434,6.0675287,0.07394741,6.172012,0.07035433,6.6420336,0.06528282,8.094344,0.04907962,5.4505615,0.0526981,4.936459,0.09007712,6.086272,0.05491289,7.705053,0.044030335,7.2866898,0.043543182,7.301329,0.027020503,6.143669,0.05471954,5.912294,0.015945423,8.114108,-0.0033301306,6.820546,-8.532744e-05,6.3584847,-0.0018100704,8.487755,-0.0106219025,6.988652,-0.029931437,7.53658,-0.027633522,6.5752273,-0.017034734,7.475325,-0.032744024,7.470126,-0.05309687,6.7374306,-0.039335832,6.65715,-0.04462052,7.3117256,-0.023215452,7.5223446,-0.054826867,6.438356,-0.0550546,6.9997253,-0.069299065,7.034515,-0.06939216,5.4436913,-0.0912313,6.729265,-0.08759975,5.7162995,-0.11468752,6.7099986,-0.11141536,5.782311,-0.11808292,6.4764237,-0.13111311,5.6532397,-0.1638616,5.390901,-0.1627109,5.8907847,-0.21496549,5.933665,-0.19004829,5.5482445,-0.22306655,5.266738,-0.22081923
2026-03-04 16:16:22.9108,106.89,143085.0,6.389309406280518,5.1054792,0.2505837,5.3410606,0.20317353,5.439156,0.17548616,5.920361,0.16484687,5.1729074,0.16112866,5.577964,0.16524565,5.9126134,0.1436683,5.81145,0.14915033,6.4554434,0.12056084,5.6054735,0.09182164,6.183356,0.09385145,6.842359,0.084055215,6.0458646,0.077894226,6.2491813,0.06915515,6.6811976,0.062412683,8.086834,0.042843714,5.4414997,0.044884864,4.9296803,0.08543108,6.029085,0.049295224,7.643526,0.030441465,7.274309,0.046550743,7.3899856,0.017714268,6.140721,0.056823663,5.8632236,0.01740296,8.134202,0.0032320304,6.8856306,0.014928112,6.462131,-0.0017385357,8.471459,-0.010755199,6.9899287,-0.02509589,7.5234823,-0.037868984,6.51351,-0.028996557,7.3517537,-0.047038812,7.477759,-0.04110872,6.7445865,-0.04237599,6.790551,-0.04766295,7.2511263,-0.017750511,7.469223,-0.04473606,6.407953,-0.03831551,7.066894,-0.059848156,7.1391573,-0.06885492,5.436322,-0.09642396,6.735516,-0.089792415,5.7044306,-0.12432641,6.699051,-0.113598116,5.723149,-0.12134818,6.4854894,-0.12247252,5.632441,-0.15021081,5.475287,-0.16899298,5.8280983,-0.19569361,5.891293,-0.16963401,5.513353,-0.20713556,5.2975855,-0.20237097
