WIFI_Timestamp,ECG_Heatmap_Label,Aligned_Breath,WIFI_Mean_Mag,CSI_Mag_0,CSI_Phase_0,CSI_Mag_1,CSI_Phase_1,CSI_Mag_2,CSI_Phase_2,CSI_Mag_3,CSI_Phase_3,CSI_Mag_4,CSI_Phase_4,CSI_Mag_5,CSI_Phase_5,CSI_Mag_6,CSI_Phase_6,CSI_Mag_7,CSI_Phase_7,CSI_Mag_8,CSI_Phase_8,CSI_Mag_9,CSI_Phase_9,CSI_Mag_10,CSI_Phase_10,CSI_Mag_11,CSI_Phase_11,CSI_Mag_12,CSI_Phase_12,CSI_Mag_13,CSI_Phase_13,CSI_Mag_14,CSI_Phase_14,CSI_Mag_15,CSI_Phase_15,CSI_Mag_16,CSI_Phase_16,CSI_Mag_17,CSI_Phase_17,CSI_Mag_18,CSI_Phase_18,CSI_Mag_19,CSI_Phase_19,CSI_Mag_20,CSI_Phase_20,CSI_Mag_21,CSI_Phase_21,CSI_Mag_22,CSI_Phase_22,CSI_Mag_23,CSI_Phase_23,CSI_Mag_24,CSI_Phase_24,CSI_Mag_25,CSI_Phase_25,CSI_Mag_26,CSI_Phase_26,CSI_Mag_27,CSI_Phase_27,CSI_Mag_28,CSI_Phase_28,CSI_Mag_29,CSI_Phase_29,CSI_Mag_30,CSI_Phase_30,CSI_Mag_31,CSI_Phase_31,CSI_Mag_32,CSI_Phase_32,CSI_Mag_33,CSI_Phase_33,CSI_Mag_34,CSI_Phase_34,CSI_Mag_35,CSI_Phase_35,CSI_Mag_36,CSI_Phase_36,CSI_Mag_37,CSI_Phase_37,CSI_Mag_38,CSI_Phase_38,CSI_Mag_39,CSI_Phase_39,CSI_Mag_40,CSI_Phase_40,CSI_Mag_41,CSI_Phase_41,CSI_Mag_42,CSI_Phase_42,CSI_Mag_43,CSI_Phase_43,CSI_Mag_44,CSI_Phase_44,CSI_Mag_45,CSI_Phase_45,CSI_Mag_46,CSI_Phase_46,CSI_Mag_47,CSI_Phase_47,CSI_Mag_48,CSI_Phase_48,CSI_Mag_49,CSI_Phase_49,CSI_Mag_50,CSI_Phase_50,CSI_Mag_51,CSI_Phase_51
2026-03-04 19:18:16.755563,0.0,29891.07,7.567654609680176,6.0469613,0.36038953,6.124923,0.3447596,6.4423566,0.33345655,8.278194,0.21432325,6.7860312,0.19648911,6.33283,0.24272163,6.104446,0.25233874,6.496366,0.21437444,6.8978868,0.198375,6.3849673,0.1859895,8.231636,0.111158796,7.84153,0.15635541,7.43554,0.16855624,7.276373,0.13535988,7.700806,0.13845806,9.445579,0.08856378,7.068244,0.073214225,6.8176956,0.0703799,6.8822203,0.13667311,8.296981,0.07750098,7.997149,0.09346321,8.632953,0.035417467,7.2027917,0.046473414,7.123853,0.08339414,9.436175,0.031918023,8.601153,0.019427707,7.8283296,-0.019589476,9.854247,0.0017191651,8.522772,0.032073013,9.364761,0.000194304,7.281988,-0.007964626,8.711782,-0.05197384,8.668109,-0.08851926,8.179251,-0.020839363,8.238017,-0.08809135,8.695639,-0.03014071,8.8428335,-0.0408483,7.564031,-0.04167085,8.390516,-0.06534795,8.626344,-0.032321706,6.4894843,-0.12108222,8.153879,-0.12407115,7.1599145,-0.051166117,7.9864244,-0.08313981,6.6638513,-0.11584481,7.213087,-0.1821239,6.7872033,-0.20748411,5.946755,-0.22491735,6.966918,-0.15278476,7.3625517,-0.09516809,6.2477026,-0.27233806,5.8859863,-0.22106312
2026-03-04 19:18:16.760502,0.0,29891.07,7.5593647956848145,6.112866,0.3468779,6.0990386,0.3447126,6.473113,0.32300884,8.246818,0.2158444,6.7790604,0.19925211,6.3080254,0.23332046,6.1712346,0.2531784,6.4388137,0.21730109,6.9096894,0.18623254,6.353528,0.1682699,8.202744,0.11055531,7.8394227,0.14348681,7.4568396,0.15670551,7.3181562,0.11443637,7.661589,0.12844525,9.45894,0.08077212,6.9858713,0.068392254,6.837515,0.07171459,6.8674474,0.12655054,8.328487,0.07353802,7.989275,0.0973932,8.622432,0.03176927,7.1636615,0.045230243,7.1113367,0.07626912,9.420348,0.027236696,8.649009,0.017618176,7.7828054,-0.017522773,9.841861,-0.00865183,8.415045,0.022850156,9.404199,0.007965997,7.2964907,-0.012441414,8.710815,-0.05399596,8.659815,-0.07841686,8.0875225,-0.01850917,8.260343,-0.081821166,8.650303,-0.040960945,8.885817,-0.039637845,7.5668106,-0.053224992,8.37818,-0.07735267,8.611547,-0.031221831,6.500022,-0.11733788,8.057444,-0.12158091,7.163816,-0.047922954,7.991046,-0.096974514,6.669344,-0.12299468,7.2730637,-0.18087323,6.7726874,-0.20700693,5.9904475,-0.22168666,6.896756,-0.16252303,7.2785892,-0.09868306,6.261812,-0.27921826,5.8751354,-0.23072001
2026-03-04 19:18:16.765574,0.0,29891.07,7.564580917358398,6.111092,0.3513493,6.016226,0.35611624,6.521041,0.33161885,8.185179,0.21980083,6.872341,0.19971378,6.2760315,0.23938558,6.164177,0.2579137,6.4922943,0.21662752,6.845664,0.19803584,6.5120583,0.17259523,8.247534,0.114467695,7.8229113,0.15562169,7.4688444,0.17210233,7.286079,0.13101867,7.4980917,0.13097255,9.5743065,0.086438335,6.911465,0.072638944,6.896932,0.07320951,6.8078785,0.12807328,8.3195305,0.076700665,8.032205,0.09568204,8.585781,0.03763219,7.2333546,0.04792785,7.179209,0.08336189,9.393571,0.032587074,8.552631,0.023886597,7.6740437,-0.025939124,9.996234,-0.0032381865,8.36979,0.029255731,9.519981,0.0032576562,7.175969,-0.013566279,8.766087,-0.055238277,8.652104,-0.079908624,8.166867,-0.021415124,8.161629,-0.09317008,8.7869215,-0.032374352,8.875764,-0.034814157,7.5886703,-0.039941624,8.388738,-0.06493882,8.454831,-0.03361614,6.6262717,-0.11898685,8.053966,-0.12387463,7.238863,-0.047003996,7.9535637,-0.096089706,6.7312207,-0.13226327,7.214521,-0.17201275,6.81162,-0.21224894,5.9073653,-0.22941181,7.0362973,-0.16045536,7.3475065,-0.09801574,6.230242,-0.2775696,5.822726,-0.22475187
2026-03-04 19:18:16.785667,0.0,29891.07,7.586598873138428,6.0508695,0.3432124,6.0951586,0.34615412,6.447235,0.32963574,8.327138,0.21627381,6.829537,0.19518131,6.3855267,0.23596303,6.1612296,0.26108405,6.4830685,0.21841675,6.8233023,0.1921724,6.397987,0.15818715,8.235767,0.10022638,7.8884196,0.13066806,7.534031,0.13925414,7.253829,0.11359013,7.659742,0.12486514,9.481796,0.08976831,7.052054,0.06474313,6.847443,0.070788436,6.918513,0.122586116,8.313856,0.07937137,8.006098,0.09155483,8.602238,0.031374518,7.2080584,0.027547041,7.1621485,0.06842989,9.438813,0.013256055,8.700715,-0.00083761633,7.84603,-0.021293346,9.875589,-0.009140682,8.48579,0.025597885,9.445492,-0.00030320114,7.338925,-0.019067688,8.778961,-0.055475075,8.701919,-0.078460746,8.169427,-0.02521083,8.2130165,-0.089390896,8.709589,-0.055125847,8.898794,-0.04766292,7.632344,-0.06909375,8.422226,-0.08852953,8.582497,-0.0414413,6.5078025,-0.11991559,8.097337,-0.12267699,7.193169,-0.049281277,8.04636,-0.104878835,6.7148914,-0.12091995,7.2554436,-0.18178758,6.810824,-0.2175352,5.9408126,-0.22283357,6.9755254,-0.18235484,7.372368,-0.10859869,6.2995358,-0.29857522,5.8838964,-0.24246053
2026-03-04 19:18:16.795676,0.0,29891.07,7.594645023345947,6.078873,0.36118206,6.073009,0.3562765,6.4748034,0.35199487,8.38231,0.23644754,6.8997602,0.21690202,6.359652,0.24695098,6.1722383,0.26224682,6.489007,0.21614696,6.9088054,0.20009519,6.4218717,0.15970194,8.229402,0.12004714,7.8337846,0.140986,7.548551,0.15949512,7.2991114,0.13057849,7.691183,0.1333246,9.487742,0.102265805,7.030941,0.09111645,6.863875,0.09350536,6.8746076,0.133324,8.331528,0.08117348,8.027914,0.08870763,8.62066,0.03995134,7.187765,0.033687677,7.092576,0.091297574,9.478763,0.027115658,8.705367,0.016227389,7.8589005,-0.012488759,9.91511,0.009270028,8.499647,0.046758484,9.430823,0.021036701,7.297218,-0.006722048,8.735939,-0.0438749,8.682675,-0.08331209,8.203383,-0.027454045,8.302401,-0.0802007,8.739299,-0.038945753,8.938936,-0.03360651,7.5812745,-0.058079984,8.441436,-0.07034801,8.65763,-0.02039667,6.5081983,-0.09872088,8.129682,-0.09999275,7.183367,-0.02734032,8.053525,-0.09102274,6.706636,-0.12284693,7.2553678,-0.18753864,6.7899284,-0.22390525,5.9451904,-0.21214241,6.9766,-0.17072836,7.379137,-0.08676523,6.3091755,-0.2710137,5.8359747,-0.23304175
2026-03-04 19:18:16.800764,0.0,29891.07,7.592816352844238,6.0371614,0.36706573,6.0783215,0.3519364,6.4570484,0.34292376,8.330843,0.22744785,6.857037,0.2002699,6.4204855,0.25263026,6.203536,0.2559993,6.4889374,0.22194275,6.8350897,0.19699965,6.4016547,0.16292995,8.2803135,0.11892403,7.8433175,0.1540746,7.5352974,0.17260829,7.2658024,0.13310602,7.694876,0.129253,9.514089,0.09463906,7.0177994,0.08416416,6.849057,0.08195128,6.959488,0.13349076,8.418593,0.07262283,7.973503,0.08719837,8.610958,0.03590646,7.138937,0.043080915,7.2323904,0.09428147,9.378416,0.03552958,8.687867,0.017965838,7.8198786,-0.026636565,9.866149,0.0014429112,8.544149,0.03075794,9.401043,0.0049358276,7.3414264,-0.007841667,8.864969,-0.05530598,8.708878,-0.08338675,8.136442,-0.01890671,8.223854,-0.09253838,8.669467,-0.037579045,8.925871,-0.034474347,7.5990877,-0.041999556,8.414861,-0.07222012,8.637901,-0.027474968,6.4866467,-0.12121626,8.132368,-0.12588303,7.169844,-0.046203893,8.0814295,-0.094435535,6.775306,-0.1254928,7.2566705,-0.18617101,6.797987,-0.22102048,5.8947244,-0.2153176,6.943124,-0.16664091,7.483249,-0.09396432,6.276595,-0.273321,5.863729,-0.21921445
2026-03-04 19:18:16.810779,0.0,29891.07,7.601494789123535,6.081245,0.3780383,6.0607166,0.34998268,6.473701,0.34858036,8.335901,0.23377655,6.913077,0.21265897,6.335774,0.25379354,6.1233487,0.26881602,6.543895,0.23100784,6.857238,0.20162262,6.5196924,0.17355464,8.287294,0.12085618,7.847362,0.15364654,7.4963202,0.17591475,7.2684813,0.1433503,7.623544,0.13734877,9.5844965,0.09300881,7.066182,0.08242307,6.894115,0.07793131,6.859369,0.14424054,8.333032,0.08216345,8.02503,0.09222498,8.615727,0.034835484,7.2874284,0.04862431,7.2027087,0.09012283,9.405616,0.03411812,8.587389,0.02051378,7.741267,-0.02660739,9.990335,0.0042055366,8.512455,0.03452609,9.483181,0.0029064778,7.2438307,-0.0050731343,8.829378,-0.050098322,8.630912,-0.087093726,8.263819,-0.019809138,8.267824,-0.08962345,8.860552,-0.03241906,8.996663,-0.03624908,7.578536,-0.037329186,8.40679,-0.067148045,8.554603,-0.025099384,6.639485,-0.11717003,8.128051,-0.1289234,7.2370243,-0.0488491,7.9978395,-0.08776034,6.75637,-0.12555797,7.2119927,-0.19018136,6.8509145,-0.22431748,5.8660398,-0.21161678,7.0308723,-0.15741919,7.396734,-0.093446545,6.347382,-0.27276042,5.8261957,-0.2188056
2026-03-04 19:18:16.815749,0.0,29891.07,7.606600761413574,6.0352483,0.35675988,6.1029825,0.34480393,6.4075375,0.32993558,8.399891,0.23682149,6.940315,0.20802684,6.4049344,0.24420577,6.11409,0.2589525,6.5429497,0.22400442,6.860087,0.19015573,6.4980855,0.17187095,8.318656,0.11739281,7.922341,0.14473474,7.430683,0.17175317,7.242108,0.129601,7.604313,0.123494774,9.52657,0.08155925,7.107142,0.07765361,6.8802414,0.081551984,6.951211,0.13061816,8.358376,0.07834805,8.039289,0.090851836,8.624315,0.035044007,7.2878914,0.048937846,7.1778135,0.08783273,9.439525,0.025458142,8.606432,0.02172465,7.7601666,-0.030058078,9.965726,-0.008468309,8.567708,0.027719012,9.443864,0.0004437972,7.3019314,-0.016426373,8.852868,-0.054867283,8.641398,-0.082904615,8.285799,-0.021241177,8.190525,-0.096438155,8.800113,-0.042127438,8.950005,-0.033058118,7.622094,-0.051043577,8.372358,-0.072757296,8.558508,-0.0413565,6.6359615,-0.13657978,8.16848,-0.13465554,7.1853337,-0.045253277,8.026211,-0.10437887,6.7507844,-0.13266957,7.21227,-0.18320383,6.8938622,-0.21744096,5.9273677,-0.22564042,7.0888743,-0.16516905,7.4493127,-0.094435036,6.284725,-0.28786415,5.783994,-0.22198969
2026-03-04 19:18:16.820750,0.0,29891.07,7.606320381164551,6.042808,0.34431198,6.1328607,0.3574449,6.460578,0.33445165,8.408785,0.21524155,6.8004494,0.20428962,6.403781,0.23976052,6.168592,0.2543069,6.483592,0.23118526,6.878175,0.19958034,6.4184556,0.17191817,8.266223,0.11439323,7.837547,0.15523957,7.5280695,0.16425334,7.3252397,0.1275927,7.774834,0.13602868,9.424814,0.08755,7.1024075,0.06742166,6.877354,0.07262882,6.9660435,0.13047843,8.364395,0.07492826,7.9946623,0.097659834,8.630718,0.031949442,7.138158,0.04663711,7.149261,0.08680817,9.468902,0.030309422,8.750299,0.014451649,7.912019,-0.022511294,9.862837,-0.003702773,8.581807,0.028972631,9.427155,-0.00038967785,7.406673,-0.020360699,8.801392,-0.0584376,8.725257,-0.07855089,8.214269,-0.019200968,8.317237,-0.092133075,8.708469,-0.04115588,8.946099,-0.036193915,7.58676,-0.045704667,8.440326,-0.07992316,8.6959095,-0.02949542,6.4687576,-0.12932126,8.146511,-0.13095987,7.2352705,-0.048639048,8.091417,-0.09750614,6.6735244,-0.119750075,7.2408357,-0.17754412,6.7806597,-0.21734637,5.939438,-0.23108713,6.944006,-0.160277,7.417155,-0.0937072,6.266993,-0.2801432,5.900876,-0.22520502
2026-03-04 19:18:16.835739,0.0,29891.07,7.613326072692871,6.0882077,0.36402303,6.074153,0.3512775,6.474688,0.33308652,8.405796,0.22208603,6.9009824,0.19733176,6.332065,0.25596645,6.1713133,0.25859874,6.522416,0.22206645,6.8272943,0.20163475,6.512761,0.17563252,8.3059,0.10728339,7.8965507,0.14847732,7.5428886,0.17045772,7.325038,0.13095753,7.606223,0.12783487,9.561902,0.08733034,7.0509863,0.07034135,6.9408994,0.06864015,6.886213,0.1358988,8.363328,0.0755064,8.008134,0.08895802,8.636426,0.03286603,7.2368894,0.045459386,7.1922793,0.08079018,9.4392605,0.023888482,8.68427,0.014633406,7.822021,-0.033492077,9.9802,-0.005469952,8.489503,0.021325784,9.496805,-0.006535616,7.2709947,-0.014882425,8.825776,-0.058996487,8.721159,-0.08607319,8.273707,-0.022846214,8.283392,-0.09825737,8.830136,-0.04638396,8.941423,-0.042520635,7.6177707,-0.053016618,8.476523,-0.08018271,8.57707,-0.04087036,6.6114063,-0.13264422,8.097877,-0.13568933,7.2646947,-0.0562801,7.995472,-0.10102889,6.7512584,-0.1256853,7.2215223,-0.18704432,6.829913,-0.21907271,5.8973317,-0.21814254,7.070446,-0.16327442,7.481025,-0.101001605,6.2627516,-0.28364792,5.815933,-0.23362772
2026-03-04 19:18:16.840757,0.0,29891.07,7.616228103637695,6.0225716,0.34847194,6.114027,0.3560523,6.400516,0.33421594,8.456285,0.22229774,6.8290534,0.20019364,6.4026203,0.24287002,6.13611,0.25576636,6.5000567,0.22203645,6.841965,0.19860944,6.471035,0.16666378,8.309372,0.10775827,7.921034,0.136896,7.467705,0.15589043,7.325483,0.12666178,7.6828847,0.12896301,9.426783,0.087632135,7.1679115,0.07254634,6.898708,0.08271389,6.96912,0.12604962,8.347086,0.07690523,8.015114,0.09288907,8.688841,0.034175154,7.2100224,0.032380406,7.153895,0.07904484,9.518288,0.02155844,8.71132,0.012559404,7.878285,-0.024368178,9.853803,-0.008020562,8.626521,0.032330167,9.466457,0.004142416,7.356356,-0.019377392,8.784848,-0.048378263,8.636038,-0.08109855,8.211574,-0.022599835,8.318764,-0.09225588,8.760455,-0.04446038,8.978667,-0.04061685,7.6346126,-0.063543454,8.38555,-0.08519882,8.6499,-0.03181638,6.466467,-0.12453361,8.226079,-0.12617819,7.2617693,-0.038287535,8.118588,-0.10377581,6.7753906,-0.11872344,7.2407618,-0.1771661,6.8668523,-0.21745068,5.9893765,-0.2194509,7.017128,-0.17456083,7.42623,-0.097578496,6.2719417,-0.2849378,5.8536243,-0.23610829
2026-03-04 19:18:16.845757,0.0,29891.07,7.618252754211426,6.048023,0.34749135,6.1057305,0.3482655,6.420202,0.33232707,8.3900385,0.20962943,6.822601,0.19031763,6.390196,0.23232847,6.1852484,0.24913889,6.5213866,0.22899748,6.8527265,0.2047592,6.479187,0.16041455,8.350849,0.100256644,7.838439,0.14889275,7.563282,0.1600417,7.3174543,0.12453994,7.7375712,0.12805879,9.457705,0.087783635,7.113893,0.06925552,6.89169,0.06562813,6.9702983,0.12740894,8.347973,0.075427845,8.011095,0.09600398,8.668371,0.034271736,7.154612,0.040225275,7.2242937,0.07686017,9.444208,0.027979473,8.75872,0.01495209,7.8541417,-0.024133425,9.864187,-0.0033656468,8.602497,0.02702992,9.465499,-0.009331117,7.3747797,-0.016554078,8.882895,-0.05472803,8.675048,-0.07578271,8.175905,-0.020170921,8.295051,-0.087579615,8.734775,-0.037985623,8.986162,-0.036649704,7.6173153,-0.05094994,8.461028,-0.08255982,8.667165,-0.031029504,6.5078135,-0.12510353,8.162424,-0.12632276,7.257905,-0.054605808,8.084907,-0.09524485,6.795253,-0.11255846,7.232444,-0.17226312,6.8350954,-0.21280482,5.9098635,-0.20965217,6.9539104,-0.15913768,7.503746,-0.09486602,6.2526574,-0.27619871,5.930882,-0.22489117
2026-03-04 19:18:16.855665,0.0,29891.07,7.6278605461120605,6.0475283,0.35851586,6.08151,0.3502841,6.459169,0.34056365,8.448226,0.21829455,6.719127,0.20084673,6.360073,0.2504344,6.16043,0.2468389,6.493951,0.22837445,6.8994207,0.19781335,6.429516,0.16763273,8.332968,0.11277206,7.7957625,0.15457611,7.614788,0.17344165,7.4162087,0.13931157,7.8055944,0.13086417,9.411565,0.09273795,7.1142635,0.07734568,6.8647575,0.07980957,6.9540877,0.1308353,8.328015,0.07395621,8.089605,0.09023763,8.734702,0.034960438,7.1167197,0.04443289,7.2463484,0.095426604,9.4482975,0.036176022,8.797956,0.020057887,7.9468064,-0.024671746,9.839845,-0.002678305,8.597332,0.034412343,9.502007,0.005593302,7.460279,-0.013672053,8.814987,-0.055934306,8.758557,-0.08167087,8.23153,-0.027360048,8.320714,-0.09132474,8.666599,-0.03844664,8.926011,-0.033156738,7.617583,-0.05431356,8.505582,-0.07031744,8.748938,-0.032492023,6.502211,-0.121445954,8.163784,-0.12028481,7.3082705,-0.048485372,8.154237,-0.09652829,6.732562,-0.11229684,7.318041,-0.18109277,6.8092103,-0.21865107,5.972779,-0.21488164,6.892357,-0.16635346,7.4953966,-0.08594245,6.25451,-0.27243096,5.937998,-0.22393128
2026-03-04 19:18:16.860806,0.0,29891.07,7.600338935852051,6.105734,0.35345963,6.0560894,0.35591736,6.4945183,0.34018636,8.273782,0.22578286,6.923199,0.20331146,6.3436894,0.24145061,6.1179333,0.2596923,6.497642,0.22699763,6.8816705,0.20851646,6.496308,0.16881265,8.264498,0.107563846,7.842269,0.14324783,7.470725,0.15993533,7.3481817,0.1225442,7.656919,0.12707211,9.524463,0.09048167,7.0911493,0.07531194,6.9334106,0.07544069,6.8566422,0.12845807,8.322131,0.07505798,7.979141,0.09588035,8.595313,0.04016328,7.282248,0.04151846,7.1524906,0.07820507,9.435006,0.02240593,8.669773,0.017869433,7.788316,-0.028786082,9.965952,-0.003966041,8.470394,0.02568321,9.490119,-0.0019643295,7.2328315,-0.018042924,8.727395,-0.055711687,8.622281,-0.08006773,8.248725,-0.019517224,8.293422,-0.086860605,8.8043,-0.04580779,8.893299,-0.039073765,7.595109,-0.057540182,8.407122,-0.07542169,8.597317,-0.036061928,6.597944,-0.13008241,8.161597,-0.13121894,7.2529807,-0.0547059,7.985892,-0.0989297,6.7360635,-0.11707135,7.276106,-0.17603372,6.8401585,-0.21379507,5.989529,-0.2107867,7.044614,-0.17143527,7.429836,-0.09775909,6.283792,-0.28184292,5.867591,-0.23259671
2026-03-04 19:18:16.865855,0.0,29891.07,7.603982925415039,6.0632787,0.37261662,6.032592,0.36698014,6.5055,0.3593089,8.344262,0.22758253,6.8739934,0.22109684,6.3099866,0.25553164,6.139972,0.25768742,6.497289,0.23350278,6.9294014,0.20662217,6.46306,0.17931238,8.185665,0.12244755,7.799473,0.1625355,7.5669684,0.1732762,7.4208035,0.1478456,7.702975,0.14000195,9.537111,0.102698095,7.0186357,0.083580315,6.9006867,0.090303466,6.8246164,0.14987354,8.297077,0.08036482,8.020305,0.090923674,8.718328,0.038570624,7.1747975,0.04326441,7.118413,0.09836736,9.455234,0.03831068,8.711378,0.02261149,7.871506,-0.017437743,9.959375,0.006614017,8.478576,0.03294837,9.501992,0.014743581,7.2411,-0.009422696,8.71521,-0.051452193,8.748009,-0.08581344,8.214294,-0.026845891,8.34138,-0.08902418,8.731089,-0.038238257,8.873073,-0.035021152,7.6153455,-0.044058967,8.54805,-0.0662105,8.705296,-0.0267546,6.5606313,-0.11291776,8.063769,-0.1190038,7.2841363,-0.04192975,7.9667892,-0.087922364,6.6729856,-0.11288059,7.318622,-0.18802403,6.7725368,-0.22503269,6.0218782,-0.22107705,7.024331,-0.17276002,7.4027534,-0.08347383,6.305921,-0.27281216,5.856694,-0.23510052
2026-03-04 19:18:16.875847,0.0,29891.07,7.634516716003418,6.023138,0.37400448,6.026023,0.37498853,6.5265083,0.35635218,8.3614235,0.233757,6.903526,0.22515565,6.4002233,0.24873996,6.142636,0.26637214,6.515522,0.24860173,6.8425045,0.2198844,6.550669,0.15780476,8.38244,0.119741015,7.852317,0.14928854,7.5560255,0.16282558,7.287428,0.13492669,7.6446953,0.14478411,9.526564,0.102879934,7.069936,0.08254735,6.9990788,0.09744828,6.9343743,0.13158566,8.376424,0.08352869,8.039585,0.09984152,8.643604,0.04303174,7.27867,0.034094866,7.214761,0.09111317,9.511876,0.029109076,8.725711,0.010523611,7.833569,-0.015655898,9.976018,0.0023730467,8.556274,0.043368172,9.49761,0.009452428,7.3340726,-0.026129186,8.852494,-0.056156866,8.646175,-0.08350439,8.328906,-0.024333006,8.346566,-0.08754846,8.874326,-0.052345525,8.977681,-0.03396757,7.6087136,-0.066043325,8.419839,-0.081513196,8.636672,-0.029246269,6.614324,-0.12563446,8.148661,-0.11594873,7.3300486,-0.036500655,8.048481,-0.10526125,6.730918,-0.12044177,7.2588763,-0.18587072,6.8859463,-0.22753802,5.940449,-0.21620326,7.1429157,-0.1794842,7.531827,-0.09609157,6.2948217,-0.30170953,5.8430166,-0.23193839
2026-03-04 19:18:16.885894,0.0,29891.07,7.633348941802978,6.057423,0.3529469,6.0936823,0.34163618,6.4564147,0.3367423,8.358788,0.2100565,6.85569,0.1804272,6.448429,0.25028673,6.16338,0.26349866,6.4908338,0.22743106,6.767378,0.21065071,6.5480285,0.16406675,8.404198,0.09340512,7.897377,0.13886532,7.572056,0.14956313,7.293309,0.11223435,7.6501994,0.117606245,9.528851,0.0921614,7.112008,0.06231072,6.956717,0.05488713,6.962296,0.1270294,8.343859,0.07980198,8.020676,0.09112679,8.561499,0.038772967,7.2247596,0.03354206,7.3158555,0.071514525,9.509636,0.019007493,8.735183,-4.151426e-05,7.811879,-0.038136236,9.954816,-0.005545812,8.632925,0.019756505,9.457441,-0.010494204,7.389614,-0.022670731,8.91975,-0.058877647,8.681234,-0.086734936,8.330276,-0.02401888,8.218985,-0.10058034,8.82758,-0.04974911,9.029792,-0.04632845,7.6584854,-0.06220467,8.365904,-0.08906343,8.621619,-0.045367856,6.552061,-0.12690443,8.234363,-0.14228731,7.3118024,-0.06676314,8.069595,-0.10684454,6.825777,-0.12163738,7.245331,-0.18221207,6.855539,-0.22212364,5.8638215,-0.21119715,7.0474157,-0.17395243,7.5802774,-0.116748445,6.2731156,-0.2926604,5.8462005,-0.24106504
2026-03-04 19:18:16.902362,0.0,29891.07,7.641484260559082,6.063664,0.35973266,6.0262995,0.35920596,6.491808,0.34917277,8.387441,0.22501114,6.8266644,0.20705715,6.405941,0.24310248,6.1976604,0.26029083,6.470631,0.23091954,6.8749228,0.20982748,6.4959674,0.16770202,8.364932,0.107701525,7.825658,0.14348762,7.5743046,0.15827186,7.3757463,0.1346948,7.670733,0.13266967,9.536825,0.098745964,7.053545,0.07766104,6.984054,0.07710802,6.9478536,0.12666126,8.36357,0.07883339,8.037784,0.09245085,8.680213,0.03619111,7.248039,0.044393063,7.2464967,0.08713446,9.485029,0.02446474,8.73512,0.012337193,7.8625383,-0.02561743,9.964517,0.00043211726,8.602845,0.032301728,9.548972,0.0046276324,7.3119826,-0.015314399,8.887894,-0.051968575,8.735109,-0.084358424,8.268405,-0.02923476,8.344223,-0.08694,8.814512,-0.03537492,9.011718,-0.04196791,7.6378293,-0.056938514,8.4861765,-0.08086662,8.705393,-0.028023295,6.593925,-0.114952095,8.161366,-0.12282292,7.41818,-0.04525257,8.094496,-0.10039947,6.8040705,-0.11015621,7.275441,-0.17921884,6.8000884,-0.21708739,5.934179,-0.2163927,7.0019336,-0.17209621,7.5059156,-0.095701486,6.287944,-0.28112411,5.92663,-0.23633768
2026-03-04 19:18:16.907759,0.0,29891.07,7.676651954650879,6.0552225,0.33907655,6.116345,0.35014743,6.4095907,0.3421308,8.526062,0.20635852,6.8579555,0.19870429,6.39722,0.23225246,6.165649,0.25830686,6.4888015,0.25172746,6.9136763,0.20708145,6.500643,0.14092213,8.302408,0.08931772,7.8929377,0.11976615,7.6407266,0.12546767,7.422244,0.10172249,7.857314,0.12060642,9.471091,0.0829762,7.176357,0.055575825,7.0074954,0.07458158,7.015318,0.120942086,8.337704,0.080617554,8.042924,0.103548065,8.752269,0.035811562,7.193996,0.025485788,7.223448,0.059553146,9.587285,0.0049701547,8.8972645,-0.01380175,8.0782385,-0.02598053,9.968402,-0.016822211,8.685081,0.018159114,9.549613,-0.0072307293,7.37166,-0.030401753,8.833842,-0.05373089,8.740656,-0.08031836,8.289411,-0.02163018,8.504343,-0.08682804,8.819462,-0.054390837,8.974734,-0.057267368,7.682802,-0.08909851,8.560474,-0.10956537,8.815098,-0.04033142,6.5244646,-0.1308089,8.251645,-0.1357769,7.41216,-0.056371942,8.101521,-0.11060676,6.771723,-0.101099886,7.278003,-0.17178547,6.8477225,-0.21225971,6.0501747,-0.20204526,6.98687,-0.17661668,7.54598,-0.11096134,6.317233,-0.31213987,5.972625,-0.24987574
2026-03-04 19:18:16.916592,0.0,29891.07,7.678096294403076,6.064032,0.3609852,6.0278454,0.35129496,6.479584,0.33616912,8.486087,0.21842836,6.8757777,0.19739637,6.4554715,0.2447673,6.271157,0.24063323,6.4867415,0.2411091,6.8053007,0.20291744,6.608235,0.16120468,8.454099,0.11003579,7.863553,0.14505638,7.5968833,0.16586432,7.281321,0.13317746,7.6586003,0.13069595,9.589009,0.087733254,7.1409454,0.06976957,7.0686765,0.076757856,7.053274,0.122959934,8.37447,0.07435589,8.053197,0.09435764,8.656545,0.028839665,7.2813263,0.04729307,7.364409,0.09180998,9.49139,0.029861957,8.824762,0.01941358,7.862305,-0.024114188,9.993288,-0.01280308,8.627434,0.028544825,9.631981,0.00037545056,7.4781246,-0.02572938,8.976297,-0.06203746,8.770942,-0.0814427,8.310451,-0.024587436,8.406812,-0.09757525,8.8778305,-0.039361782,9.096985,-0.032984328,7.6204863,-0.05464827,8.471995,-0.08376126,8.663304,-0.031254206,6.633755,-0.13135512,8.201736,-0.12989295,7.4266295,-0.056682814,8.193671,-0.10196023,6.838349,-0.10572565,7.255052,-0.17576154,6.865611,-0.21621893,5.9547296,-0.20701802,7.0103974,-0.17243972,7.6395392,-0.08170431,6.2653227,-0.28590885,5.875291,-0.22117637
2026-03-04 19:18:16.931051,0.0,29891.07,7.699526309967041,6.068586,0.36478922,6.0821033,0.38212496,6.4128466,0.35981023,8.6175995,0.23395802,6.953149,0.21793081,6.4250484,0.2568846,6.2303987,0.26814705,6.510202,0.24582008,6.85856,0.21558893,6.568252,0.1621534,8.403885,0.12687202,7.896763,0.15755968,7.645764,0.16684583,7.3997583,0.14477943,7.740315,0.13785395,9.511648,0.10301238,7.2264113,0.08748791,7.0977964,0.09022473,7.0596585,0.13250469,8.416811,0.07885152,8.0386095,0.09516065,8.708599,0.03654113,7.204148,0.046746686,7.282838,0.10258838,9.56063,0.03578046,8.911712,0.0264072,7.9548216,-0.024400922,9.9460125,0.005380689,8.776005,0.035650514,9.569397,0.0055337804,7.412135,-0.018748924,9.038787,-0.057745088,8.76166,-0.089032136,8.288165,-0.028336823,8.423311,-0.09511809,8.822907,-0.040494036,9.1082,-0.022891197,7.696984,-0.05042495,8.52125,-0.07839472,8.784471,-0.024607476,6.6102247,-0.12058402,8.297925,-0.116599336,7.468718,-0.036093097,8.19873,-0.10543905,6.9281454,-0.1200662,7.216618,-0.18484794,6.8149815,-0.22438128,5.950922,-0.20744732,7.0387855,-0.16876838,7.579769,-0.07891273,6.3883624,-0.27648652,5.9459476,-0.22416596
2026-03-04 19:18:16.936152,0.0,29891.07,7.695052623748779,6.1032705,0.3376712,6.108047,0.35581842,6.4794216,0.3324921,8.581979,0.20278487,6.7998405,0.18818627,6.389377,0.2477772,6.127388,0.2523585,6.493941,0.2509241,6.9377403,0.20926823,6.5078616,0.16485056,8.391262,0.09592605,7.847646,0.13496721,7.6792984,0.14691767,7.4810333,0.11764602,7.8659296,0.1281952,9.469745,0.08242375,7.2186728,0.05471685,7.0194864,0.058797378,7.071536,0.12313191,8.300458,0.07781558,8.018689,0.09971399,8.758547,0.030162027,7.146902,0.039272122,7.2561016,0.079536445,9.560934,0.015045604,8.977588,0.0098782545,8.108922,-0.026234495,9.952192,-0.023162989,8.785492,0.014064009,9.536716,-0.010300211,7.4367366,-0.031206127,8.91486,-0.06359625,8.762166,-0.0884856,8.326204,-0.016956307,8.516196,-0.096753344,8.807138,-0.048154324,8.960156,-0.045181185,7.6497254,-0.06823853,8.626937,-0.09460493,8.890746,-0.040596467,6.547191,-0.14354464,8.307783,-0.14380464,7.424733,-0.06540786,8.148653,-0.11380633,6.8004274,-0.11148237,7.2255826,-0.18444802,6.844978,-0.21164766,6.067599,-0.2084211,7.0215554,-0.176397,7.615753,-0.102723,6.2714095,-0.29850695,6.0001974,-0.24002449
2026-03-04 19:18:16.945886,0.0,29891.07,7.701269149780273,6.048765,0.37992287,6.0091763,0.37613094,6.46333,0.36256844,8.598189,0.22330756,6.8925834,0.21565564,6.483921,0.25607154,6.303133,0.25620311,6.452751,0.2423902,6.856783,0.21122336,6.531851,0.16005132,8.482447,0.12599601,7.9211273,0.15386355,7.694259,0.15638548,7.3922496,0.14922543,7.74325,0.14211145,9.481264,0.105989374,7.18026,0.07678429,7.0860047,0.09280779,7.1056595,0.13371025,8.455099,0.07635555,8.072124,0.0958564,8.681167,0.03565927,7.223735,0.03993212,7.362683,0.09971534,9.530167,0.037131507,8.944041,0.018162645,7.9254932,-0.021284472,9.918256,0.0051735826,8.722877,0.03833374,9.64232,0.011050913,7.5042653,-0.016286988,9.000032,-0.054715518,8.853235,-0.08978252,8.285544,-0.025742792,8.43244,-0.09151702,8.818248,-0.042285394,9.057473,-0.025670014,7.679987,-0.050413113,8.538626,-0.07593247,8.749611,-0.024939336,6.544667,-0.119730756,8.256908,-0.12113073,7.4975033,-0.040329907,8.213737,-0.09792844,6.8510933,-0.10466148,7.3523626,-0.19198851,6.7995734,-0.22144122,5.9695926,-0.20959552,6.9915133,-0.16496825,7.6930113,-0.08011514,6.3092246,-0.27242535,5.86238,-0.21729083
2026-03-04 19:18:16.956098,0.0,29891.07,7.713994979858398,6.052174,0.36271915,6.012927,0.37103823,6.4928083,0.3559438,8.587148,0.21744166,6.96713,0.20923573,6.5197067,0.25453743,6.2455983,0.26491034,6.4932404,0.24775335,6.814532,0.21802425,6.6429563,0.17066617,8.527836,0.11944207,7.9304185,0.15760586,7.6377883,0.16065289,7.3206134,0.14165603,7.697664,0.13716008,9.546083,0.09478181,7.2045455,0.068282396,7.150639,0.07124284,7.10821,0.1295115,8.418308,0.07824803,8.043488,0.09424041,8.647391,0.030878041,7.269238,0.048715558,7.3698964,0.09448404,9.568844,0.027315212,8.882256,0.020392513,7.925691,-0.027262291,9.987136,-0.012223824,8.756436,0.024852425,9.639252,-0.010471735,7.4612155,-0.029786006,9.055752,-0.063088596,8.75194,-0.0923909,8.364871,-0.025065463,8.444584,-0.10527433,8.928806,-0.040029403,9.158988,-0.032158043,7.678408,-0.058030766,8.496489,-0.09192974,8.739521,-0.024613433,6.637053,-0.1406914,8.284932,-0.14166535,7.517491,-0.06530164,8.200705,-0.1103363,6.9150624,-0.12076065,7.271019,-0.19428244,6.841951,-0.21986878,5.907052,-0.21847585,7.111624,-0.1699702,7.7231097,-0.09633747,6.2962313,-0.29386067,5.8809953,-0.2359786
2026-03-04 19:18:16.981121,0.0,29891.07,7.723930358886719,6.047382,0.3473603,6.115791,0.35012758,6.405058,0.3338604,8.697762,0.2056307,6.85244,0.1871466,6.474325,0.23575242,6.222225,0.25144276,6.562275,0.25449067,6.871229,0.20544419,6.5501356,0.15774797,8.429732,0.10273295,7.8102775,0.14420678,7.7353187,0.16200206,7.469422,0.11870588,7.8279533,0.1282108,9.45504,0.08322839,7.315734,0.065478265,7.044475,0.06688524,7.173957,0.11970248,8.368435,0.08061297,8.105081,0.096199304,8.736811,0.028187921,7.1230693,0.047384925,7.286366,0.08853186,9.5612335,0.024362404,9.015338,0.017053371,8.071201,-0.027834969,9.912423,-0.01686177,8.897615,0.023280405,9.574243,-0.0156128695,7.5537777,-0.03847404,9.060058,-0.06319342,8.82282,-0.081126146,8.377258,-0.019401679,8.476419,-0.10430988,8.769058,-0.041076273,9.058735,-0.0315081,7.66382,-0.056846954,8.630203,-0.09391903,8.917351,-0.03479657,6.5541334,-0.14533965,8.361354,-0.1389917,7.4000516,-0.064056344,8.326624,-0.1124528,6.8659825,-0.109345004,7.2560225,-0.1774512,6.821198,-0.21737927,5.9975576,-0.21017098,6.981042,-0.16755658,7.682206,-0.08930877,6.3824177,-0.2891463,5.9739137,-0.22510682
2026-03-04 19:18:16.991143,0.0,29891.07,7.72255802154541,6.2073493,0.35931376,5.9053345,0.37532175,6.538271,0.3625325,8.510734,0.22652338,7.0541477,0.2195829,6.29853,0.25712255,6.1579394,0.25782636,6.468393,0.25418898,6.9520655,0.22694142,6.7070403,0.17232564,8.438616,0.11133098,7.866173,0.14421716,7.7067485,0.16055648,7.529258,0.12941772,7.6320925,0.14077446,9.610418,0.103279136,7.057205,0.08004304,7.23106,0.08925425,6.8927393,0.14051373,8.315245,0.08092378,8.029183,0.09496299,8.873885,0.043379344,7.3905144,0.048088096,7.286623,0.093450084,9.599914,0.030633362,8.853572,0.021447428,7.9764028,-0.025076803,10.181013,-0.0016754156,8.578073,0.03209999,9.79288,0.0017297679,7.1930676,-0.021297894,8.963856,-0.055580277,8.815116,-0.09041692,8.360871,-0.014420782,8.591721,-0.08667011,9.049095,-0.045522656,9.012577,-0.031447116,7.684725,-0.056600764,8.710724,-0.07881641,8.722529,-0.033205636,6.72964,-0.1328627,8.146234,-0.11926857,7.679705,-0.049253006,7.996536,-0.0995739,6.840393,-0.10915572,7.294964,-0.1864494,6.8839183,-0.21637687,6.1031094,-0.20119804,7.200839,-0.18023282,7.6774907,-0.083890855,6.3827057,-0.29454756,5.8918176,-0.23550226
2026-03-04 19:18:17.011122,0.0,29891.07,7.735281944274902,6.086731,0.33584967,6.0512404,0.354498,6.541279,0.33469203,8.612193,0.1908364,6.937954,0.16855763,6.4133615,0.2485938,6.27448,0.26145124,6.450819,0.25080228,6.901902,0.2234556,6.6372285,0.15634269,8.50067,0.07626311,7.9044237,0.12500757,7.720544,0.13569969,7.429705,0.10263841,7.7509637,0.10687195,9.5612135,0.08191611,7.1893954,0.041893996,7.179948,0.050109774,7.08022,0.12305345,8.381717,0.074240096,8.006849,0.098336704,8.724005,0.034963004,7.2306385,0.036253862,7.3953347,0.057989057,9.5290365,0.0022360089,8.959904,-0.0021350416,8.025766,-0.045027733,10.068633,-0.027967218,8.767617,0.0028771139,9.675884,-0.029861255,7.4082737,-0.044087324,9.063313,-0.074484915,8.817373,-0.08611206,8.351153,-0.027148295,8.524244,-0.1034826,8.912688,-0.06428954,9.075902,-0.060082283,7.7113385,-0.081357546,8.656757,-0.11608688,8.829283,-0.061069712,6.6723323,-0.1515654,8.275605,-0.15321285,7.643938,-0.0875876,8.14502,-0.12544668,6.9451866,-0.11232038,7.251983,-0.17495276,6.8235846,-0.21282564,6.027356,-0.19806711,7.065229,-0.18558013,7.8085303,-0.12404638,6.2641296,-0.32029477,5.97176,-0.25075817
2026-03-04 19:18:17.016096,3.5e-323,29891.07,7.761800765991211,6.0942397,0.3741897,6.0861588,0.38894948,6.5110693,0.37570778,8.628418,0.24170355,6.937044,0.2292613,6.409433,0.26134,6.210127,0.2675467,6.511996,0.25119135,6.9281726,0.23992188,6.700307,0.1559284,8.526605,0.114210345,7.819443,0.1421877,7.78168,0.15684742,7.4621124,0.13818556,7.8150496,0.13194926,9.622574,0.11632054,7.196711,0.0855842,7.17945,0.09600512,7.073407,0.14950868,8.328219,0.087304324,8.107336,0.093548335,8.827858,0.049675137,7.265456,0.035046514,7.4042273,0.08510627,9.57524,0.028699953,9.004497,0.009824003,8.102539,-0.02792326,10.133233,0.008568271,8.834201,0.030045684,9.688857,-0.0009510802,7.3830333,-0.009895439,9.0412245,-0.05177703,8.867316,-0.09669989,8.464579,-0.025646886,8.596631,-0.08718357,8.946613,-0.04897911,9.119893,-0.04500457,7.6229568,-0.05911598,8.768429,-0.097587675,8.971069,-0.031364314,6.7321763,-0.11114637,8.24721,-0.12120595,7.54814,-0.050181683,8.168008,-0.0959844,6.92367,-0.10030178,7.3047204,-0.18741868,6.8929853,-0.22324476,6.0319767,-0.19051425,7.101956,-0.18083662,7.7191834,-0.085112445,6.3886776,-0.29732555,6.007547,-0.24092111
2026-03-04 19:18:17.021045,5.767e-320,29891.07,7.763755798339844,6.075032,0.33466855,5.9588284,0.35018662,6.4640684,0.3310487,8.752911,0.19539686,6.9658566,0.18347253,6.4793754,0.24532114,6.276208,0.25149074,6.484479,0.25706875,6.8866854,0.20896396,6.680689,0.16286977,8.544701,0.08587428,7.9360204,0.12083756,7.728802,0.12204109,7.374888,0.11059692,7.743324,0.12592812,9.580056,0.0762486,7.2600827,0.038116906,7.284479,0.05299989,7.1497326,0.11698648,8.428212,0.08016397,8.088897,0.09740773,8.697159,0.022666465,7.341534,0.04039695,7.3905616,0.06537582,9.622171,0.005988566,8.985748,-0.0023513273,8.048322,-0.03528638,10.034163,-0.024292272,8.770445,0.0052382383,9.756219,-0.030008405,7.5487237,-0.039613422,9.103396,-0.066915266,8.825188,-0.09361629,8.442111,-0.026011089,8.53909,-0.09863203,9.032913,-0.05453912,9.164768,-0.059616614,7.6884294,-0.08309282,8.571077,-0.115214795,8.844208,-0.049268723,6.668352,-0.14594337,8.350131,-0.15677375,7.694882,-0.080956124,8.339976,-0.11828938,6.9693885,-0.1032848,7.307449,-0.17853773,6.795183,-0.21106085,5.9496784,-0.20286527,7.124612,-0.18499601,7.77549,-0.1249844,6.302093,-0.31442407,5.8885646,-0.2526739
2026-03-04 19:18:17.036144,9.494612e-317,29891.07,7.773788928985596,6.0897417,0.36013266,6.0225916,0.38381737,6.470329,0.3596924,8.704626,0.23113789,7.030293,0.20868148,6.4629064,0.26497257,6.282429,0.2610431,6.5417013,0.25839657,6.8217688,0.22527681,6.7044606,0.16657606,8.547594,0.11042843,7.873382,0.14034587,7.792442,0.16025296,7.402151,0.13278215,7.7617764,0.12983039,9.57302,0.09932856,7.2873507,0.067081556,7.2368555,0.07371426,7.1864743,0.13224438,8.3995495,0.07758008,8.094843,0.093139686,8.729273,0.035660386,7.2670803,0.045675453,7.4188786,0.09658126,9.55194,0.02649331,9.05294,0.017092446,8.031549,-0.032633048,10.114852,-0.0068443576,8.844269,0.022847772,9.770281,-0.011491845,7.5166607,-0.031413257,9.190078,-0.061846282,8.842669,-0.09574869,8.412828,-0.023867793,8.4762945,-0.102448985,8.953968,-0.050093558,9.195244,-0.036970176,7.723516,-0.065338194,8.594383,-0.089211546,8.813583,-0.041127536,6.697338,-0.1423209,8.317642,-0.14094436,7.617737,-0.06042372,8.309895,-0.11930812,6.981872,-0.11557735,7.2809906,-0.19021806,6.8990393,-0.21889389,6.0071096,-0.20146826,7.1268272,-0.18574718,7.875364,-0.09260679,6.3920345,-0.29923704,5.9445996,-0.24026082
2026-03-04 19:18:17.041140,1.5055136071e-313,29891.07,7.773251056671143,6.15854,0.35204363,6.040708,0.3730501,6.428613,0.3435327,8.733475,0.21664184,6.9229774,0.21320546,6.3345594,0.24096335,6.1652746,0.2539485,6.498739,0.271845,6.9920645,0.21274361,6.676592,0.16222018,8.417654,0.11219527,7.8856936,0.1418188,7.758195,0.1570727,7.6093273,0.12565804,7.894467,0.1396067,9.522545,0.08325195,7.2645736,0.06245916,7.2193203,0.0781774,7.0497293,0.12190538,8.316578,0.08016613,8.099651,0.11045584,8.925688,0.025420288,7.2529416,0.048848238,7.2979083,0.0977359,9.644233,0.025636092,9.061075,0.018438533,8.182015,-0.018806186,10.053816,-0.018598253,8.844465,0.023449197,9.735997,-0.008126331,7.4067583,-0.037304815,9.017313,-0.06326803,8.891009,-0.084458664,8.43534,-0.016838841,8.715772,-0.10040884,8.941304,-0.040935412,9.015545,-0.02839639,7.678583,-0.0663613,8.787903,-0.094165556,9.032186,-0.029788427,6.64331,-0.14770013,8.317308,-0.139875,7.6775885,-0.05003609,8.2279,-0.11515685,6.880226,-0.09691,7.3513403,-0.1748618,6.8483114,-0.21000513,6.1482067,-0.20694701,7.1463795,-0.17244492,7.667736,-0.07150645,6.4149046,-0.29949388,5.9766974,-0.23473758
2026-03-04 19:18:17.046173,2.29935541234535e-310,29891.07,7.785942554473877,6.143945,0.35583836,6.058765,0.3654145,6.483429,0.3462103,8.737373,0.22036539,6.9003043,0.20436919,6.447494,0.2515853,6.2145486,0.25466332,6.5335093,0.26127723,6.9429946,0.2184569,6.6653414,0.15826772,8.543501,0.099393256,7.798996,0.13061197,7.7945027,0.14012212,7.5256686,0.11833183,7.888604,0.12686567,9.554356,0.093753666,7.2692404,0.06378709,7.2126155,0.07493878,7.1528945,0.13305783,8.311043,0.07766043,8.108436,0.0954744,8.87898,0.03262871,7.222183,0.03754035,7.3819413,0.08030692,9.617895,0.013282716,9.14571,0.005684692,8.224792,-0.027649458,10.064425,-0.015564837,8.91082,0.01966278,9.667816,-0.016867952,7.4994245,-0.029403633,9.065228,-0.058870565,8.869199,-0.09243555,8.466885,-0.021035865,8.691522,-0.094013855,8.964017,-0.048684653,9.122488,-0.046193287,7.663917,-0.07961108,8.787327,-0.103784695,8.997245,-0.043802544,6.647516,-0.14156754,8.305822,-0.13713406,7.603911,-0.059708886,8.3187895,-0.11007636,6.928483,-0.0984109,7.284193,-0.18406028,6.855919,-0.21029551,6.101047,-0.18552333,7.077067,-0.18574654,7.7891192,-0.09761935,6.393788,-0.31474295,6.0339723,-0.24194062
2026-03-04 19:18:17.056181,3.382528643500865e-307,29891.07,7.791384220123291,6.1008687,0.3700785,6.0927486,0.37582645,6.494897,0.36112744,8.705128,0.22949927,7.048682,0.21608551,6.537922,0.26110604,6.2040405,0.26367235,6.563714,0.26255605,6.817198,0.23588498,6.77934,0.17286824,8.589176,0.1141884,7.8660297,0.14569125,7.787077,0.15766686,7.372805,0.13943505,7.7822223,0.13800354,9.645022,0.102284126,7.2787013,0.068549015,7.2461267,0.07729498,7.1663594,0.13951856,8.371615,0.085417345,8.13168,0.100583695,8.761208,0.035288494,7.289163,0.050609216,7.3880844,0.09429598,9.572219,0.029755047,9.0140295,0.015652182,8.054648,-0.030456116,10.185947,-0.0059388787,8.921067,0.0198056,9.698753,-0.018296862,7.4707212,-0.02305812,9.205085,-0.05888327,8.834969,-0.10302574,8.525548,-0.020873478,8.546341,-0.10227048,9.034437,-0.03749123,9.163625,-0.03622814,7.709408,-0.05473161,8.668904,-0.09518283,8.895089,-0.03256303,6.7427073,-0.1391874,8.335866,-0.14786428,7.5943303,-0.06398074,8.280444,-0.10652685,7.0045347,-0.107625924,7.2849903,-0.18481645,6.913705,-0.2177147,5.955209,-0.19153345,7.2071633,-0.18055929,7.9026027,-0.09924715,6.4249935,-0.30867288,5.9848623,-0.23702717
2026-03-04 19:18:17.066201,4.792816671315912e-304,29891.07,7.793833255767822,6.1068354,0.34800187,6.0462465,0.3778209,6.4260726,0.3492392,8.76962,0.22073877,6.937344,0.2106186,6.449238,0.24768142,6.2527075,0.2530993,6.4853673,0.26131967,6.9576178,0.22109827,6.6619368,0.15712105,8.545469,0.10698997,7.8564487,0.13396783,7.7888064,0.14954633,7.4873233,0.12330467,7.9036613,0.13314188,9.519072,0.09542845,7.33218,0.07190914,7.2540035,0.08315052,7.1693435,0.123072594,8.347818,0.079644784,8.106988,0.09661897,8.860464,0.032121606,7.2597017,0.04616335,7.3764486,0.092279546,9.673864,0.022849558,9.089867,0.014952979,8.20502,-0.02016746,10.004725,-0.01102919,8.8954115,0.023943068,9.780846,-0.0071437364,7.519309,-0.029438239,9.077231,-0.064168856,8.898337,-0.088487774,8.454059,-0.022356832,8.707878,-0.09262627,8.946505,-0.04639906,9.18186,-0.0321712,7.657667,-0.06602858,8.767507,-0.100294024,8.984606,-0.032317895,6.6348915,-0.13599375,8.328122,-0.1327676,7.6784687,-0.053264283,8.345295,-0.11576895,6.8928742,-0.09959805,7.3628197,-0.17687853,6.8655825,-0.2141219,6.126816,-0.20125929,7.085485,-0.1767037,7.8069534,-0.081584945,6.422763,-0.3001715,5.98387,-0.22661336
2026-03-04 19:18:17.076293,6.5411500014281375e-301,29891.07,7.804344654083252,6.16589,0.3813856,6.0146365,0.4056658,6.4504952,0.38302404,8.72599,0.25214705,7.0368285,0.24450126,6.3506703,0.26817235,6.2140903,0.26547703,6.5736256,0.2715828,6.9052057,0.2351029,6.785733,0.16768375,8.47386,0.13687924,7.86957,0.15884016,7.8488383,0.1666171,7.5645347,0.15755847,7.845686,0.14985654,9.591638,0.12199243,7.2239165,0.09883711,7.34344,0.11093488,7.0492325,0.14163508,8.336791,0.08633687,8.098819,0.10177242,8.877525,0.042313695,7.3512893,0.044374254,7.342515,0.11564735,9.726834,0.04271435,9.03726,0.026411925,8.117109,-0.01350592,10.224644,0.008491107,8.844529,0.04573433,9.783735,0.009493962,7.3601394,-0.018413328,9.118264,-0.05401327,8.893187,-0.099174865,8.470495,-0.021960927,8.680943,-0.09301009,9.081311,-0.04093682,9.163182,-0.0168508,7.7339067,-0.05349798,8.749021,-0.08188693,8.921046,-0.018214826,6.7774377,-0.11923855,8.269737,-0.114287876,7.7992635,-0.037860423,8.244565,-0.10889138,6.9909945,-0.107624605,7.287765,-0.18390259,6.9041343,-0.2221364,6.1107755,-0.19435813,7.2173553,-0.18384132,7.802054,-0.072797455,6.4819283,-0.29324555,5.993494,-0.22540033
2026-03-04 19:18:17.086506,8.598671479734173e-298,29891.07,7.795354843139648,6.058732,0.3713033,5.9908667,0.38923642,6.418797,0.37054074,8.801496,0.22930537,6.95764,0.21596979,6.497097,0.25936764,6.271495,0.25837657,6.49146,0.27144212,6.790961,0.23854366,6.756941,0.16901043,8.618596,0.11254751,7.980916,0.14648464,7.739248,0.15648054,7.380495,0.13326499,7.7945642,0.13890025,9.606996,0.11042004,7.3241525,0.07362502,7.280957,0.080854096,7.198304,0.13122462,8.379643,0.08403196,8.154812,0.09991505,8.717106,0.040017307,7.357805,0.047358025,7.4168706,0.09251178,9.706369,0.027698787,8.991925,0.018412242,8.067525,-0.027386721,10.107939,-0.006024741,8.912235,0.024045924,9.797753,-0.0051564956,7.4995704,-0.03490255,9.127445,-0.06307497,8.829651,-0.0948221,8.498589,-0.016672533,8.586585,-0.093326434,9.067948,-0.04303917,9.219846,-0.035951212,7.7216625,-0.067394555,8.600888,-0.093915105,8.8761215,-0.043196954,6.660191,-0.13700207,8.416637,-0.13366367,7.747245,-0.060945097,8.296083,-0.111007124,7.021472,-0.10529133,7.2841253,-0.18087734,6.9376416,-0.22290245,5.998071,-0.1972676,7.179347,-0.18697105,7.846241,-0.09222985,6.429731,-0.30988842,5.943663,-0.23553468
2026-03-04 19:18:17.091309,1.088735945487576e-294,29891.07,7.8071208000183105,6.095246,0.35855684,6.032259,0.38640958,6.526789,0.36775288,8.713669,0.23715466,7.065527,0.21613725,6.3990397,0.26026645,6.193158,0.26233518,6.553324,0.277281,6.839672,0.2444038,6.853136,0.15409313,8.563019,0.10769279,7.871815,0.1430427,7.7649207,0.15799524,7.418385,0.123179294,7.7745104,0.13131765,9.619531,0.1072905,7.333465,0.07247091,7.3302445,0.081011064,7.1572013,0.13275936,8.347873,0.08650839,8.148126,0.09802457,8.781732,0.04482265,7.3294306,0.03840759,7.359077,0.08722305,9.656013,0.027972411,9.043959,0.010452219,8.059427,-0.030617673,10.200896,-0.008418294,8.970317,0.02347825,9.76638,-0.018478774,7.4354496,-0.032860123,9.221472,-0.061659366,8.786821,-0.095109895,8.545395,-0.027201036,8.607142,-0.10010189,9.136137,-0.049530763,9.203131,-0.038980637,7.747127,-0.06540388,8.666368,-0.10678835,8.873959,-0.041118644,6.7634277,-0.14356168,8.433708,-0.14429453,7.710689,-0.06403578,8.250511,-0.11979622,7.0148325,-0.10659921,7.1918497,-0.18035823,6.9767714,-0.22161354,6.075453,-0.19731064,7.276524,-0.19266549,7.843351,-0.09631493,6.4570413,-0.31568658,5.9849887,-0.2458805
2026-03-04 19:18:17.096253,1.3277848949858714e-291,29891.07,7.80958080291748,6.008911,0.36353773,6.1158957,0.38239792,6.3771152,0.3550459,8.891989,0.22334784,6.863156,0.21654336,6.49313,0.25693387,6.2320848,0.25480288,6.5193205,0.26361847,6.9184113,0.22801948,6.6791763,0.1613924,8.596393,0.12344152,7.881109,0.1509558,7.8087,0.16810982,7.4625287,0.14380896,7.982872,0.13741584,9.513804,0.105702706,7.45255,0.08019408,7.245719,0.083642684,7.251183,0.13079214,8.33331,0.07832859,8.136193,0.09516478,8.845975,0.036815736,7.2013535,0.04693006,7.3856378,0.10987388,9.680688,0.03889947,9.135625,0.02753478,8.285124,-0.017207995,10.039939,-0.0006323355,9.023969,0.03540483,9.722181,-0.00085885014,7.5394993,-0.023136606,9.1196,-0.05979383,8.840282,-0.09610805,8.504787,-0.02256952,8.71046,-0.096703514,8.945341,-0.040721,9.2223625,-0.024379434,7.6739163,-0.054530803,8.700164,-0.08273341,9.075942,-0.024748018,6.6506205,-0.12419485,8.432685,-0.12553355,7.6187015,-0.043677956,8.350741,-0.110341504,6.990466,-0.104837246,7.2965527,-0.1759201,6.8837686,-0.21278945,6.0865035,-0.19654468,7.104132,-0.16841903,7.8102345,-0.07344886,6.4490128,-0.2905496,6.0083847,-0.22227013
2026-03-04 19:18:17.107714,1.559720724198469e-288,29891.07,7.794677257537842,6.105953,0.37399688,5.990808,0.38410679,6.4343715,0.36894134,8.760417,0.22156158,6.937876,0.2153169,6.4938483,0.26402932,6.294803,0.26046872,6.5607324,0.26250654,6.8676705,0.23175012,6.7085066,0.18083297,8.626166,0.116337486,7.8734107,0.15841338,7.789619,0.16877943,7.45057,0.15120196,7.7996764,0.14518996,9.533472,0.10942031,7.326228,0.07558628,7.2815056,0.07860967,7.2048173,0.1340887,8.399627,0.08066738,8.149047,0.09518961,8.76082,0.0366295,7.240659,0.060132165,7.397564,0.102511026,9.638233,0.03568512,9.107236,0.027738063,8.065532,-0.02325808,10.067751,-0.0008973126,8.976861,0.02576547,9.717971,-0.009557403,7.5129786,-0.02932657,9.244472,-0.066666424,8.875221,-0.10119547,8.479082,-0.019271422,8.565234,-0.10212282,9.000167,-0.040616356,9.179553,-0.025908364,7.6965895,-0.049234204,8.677255,-0.08522854,8.89754,-0.034729514,6.6745324,-0.14293534,8.349033,-0.14163814,7.653282,-0.05934311,8.346292,-0.106979676,7.0528417,-0.10469988,7.2832065,-0.1861118,6.8634424,-0.21658978,6.0312357,-0.19689687,7.1148376,-0.17454262,7.926399,-0.084697425,6.371186,-0.29566807,5.9670653,-0.23813848
2026-03-04 19:18:17.117127,1.764736704440603e-285,29891.07,7.810837745666504,6.108298,0.37250715,6.118074,0.39491987,6.5054684,0.3702647,8.780559,0.22211705,6.851524,0.22256729,6.4105725,0.26230428,6.1867867,0.24992917,6.426863,0.2648551,6.997646,0.22449896,6.6640453,0.16565365,8.437493,0.12737061,7.8639436,0.1588256,7.789714,0.17867596,7.653938,0.15522413,8.085343,0.14249781,9.527845,0.11400599,7.356919,0.085320525,7.224426,0.08967098,7.1348057,0.13940392,8.254042,0.07672928,8.113554,0.09895669,8.914846,0.035961702,7.2137465,0.050803836,7.308125,0.121973574,9.694867,0.04883564,9.1489105,0.034084868,8.397455,-0.01750967,10.045313,0.00092117616,8.967424,0.03455666,9.729435,0.0036709115,7.5472317,-0.016561147,8.958213,-0.06675964,8.927484,-0.091544874,8.443545,-0.020444587,8.804083,-0.0907783,8.968838,-0.04013894,9.060046,-0.012192743,7.6890736,-0.03678648,8.810161,-0.0800934,9.145903,-0.019437915,6.5611877,-0.12462668,8.409062,-0.12181242,7.725269,-0.049376234,8.308958,-0.101059146,6.849304,-0.092853464,7.4123945,-0.17632641,6.9180427,-0.21543495,6.309808,-0.1956244,7.0601416,-0.16751403,7.8485126,-0.05600781,6.3946447,-0.27726606,6.0997043,-0.22002496
2026-03-04 19:18:17.121915,1.923211075667951e-282,29891.07,7.814533710479736,6.1845264,0.3609406,5.945132,0.3818456,6.5051546,0.36075374,8.690844,0.21398684,7.0166,0.20631635,6.4329658,0.25701195,6.228207,0.2604726,6.5480986,0.27898663,6.930788,0.24120934,6.801686,0.16454506,8.571977,0.10007912,7.8553395,0.14745216,7.802702,0.15011115,7.550563,0.12753029,7.823008,0.13629451,9.649011,0.10246496,7.283556,0.056196444,7.324649,0.07018959,7.1079392,0.1325498,8.321186,0.083720125,8.159137,0.10624582,8.844479,0.040780075,7.314623,0.046668097,7.3770537,0.08674311,9.628903,0.020678582,9.049547,0.013676931,8.109601,-0.034401502,10.217748,-0.018445365,8.96456,0.017637176,9.792349,-0.021067642,7.407503,-0.040938742,9.171389,-0.067324564,8.862841,-0.09785977,8.575697,-0.017795749,8.668284,-0.09556437,9.124444,-0.046060316,9.144986,-0.04451097,7.709584,-0.072732024,8.725999,-0.106571764,8.959809,-0.04653277,6.761089,-0.149486,8.386323,-0.15130424,7.776305,-0.07818038,8.173147,-0.119150884,6.9849873,-0.09730513,7.2872725,-0.17448926,6.9081407,-0.213708,6.0962496,-0.18523537,7.22029,-0.19007412,7.9500713,-0.09937814,6.4183745,-0.31734747,6.0110335,-0.25472033
2026-03-04 19:18:17.141441,2.0187751080562817e-279,29891.07,7.812308311462402,6.076328,0.37340507,5.959483,0.39360112,6.426869,0.37753925,8.759204,0.22341982,7.0224223,0.22466694,6.4574566,0.26670796,6.2774363,0.26249865,6.540492,0.26660696,6.89018,0.23232205,6.7842784,0.16661832,8.692139,0.12938473,7.913576,0.16149114,7.8069158,0.16681562,7.43146,0.15338773,7.761109,0.14530955,9.572378,0.11433029,7.3054004,0.07871148,7.3484087,0.092432596,7.210759,0.13003653,8.430167,0.08642611,8.11549,0.09765563,8.767838,0.031004608,7.264917,0.05207832,7.5071597,0.11626948,9.663284,0.040357582,9.052213,0.026716204,8.052828,-0.026765091,10.121752,-0.0016574296,9.00481,0.034944072,9.73798,-0.0047548846,7.508475,-0.027305799,9.27029,-0.06471659,8.875638,-0.10000173,8.525054,-0.023421114,8.551653,-0.10910388,9.053751,-0.040466685,9.231146,-0.01728641,7.7276707,-0.053342965,8.663861,-0.07933118,8.875059,-0.030198094,6.7213664,-0.1359061,8.399399,-0.13383275,7.740617,-0.053686745,8.332809,-0.1107278,7.0789022,-0.110069446,7.2528048,-0.18582894,6.9006925,-0.22557974,6.004128,-0.20597924,7.246578,-0.17878407,7.973373,-0.08035664,6.3721113,-0.2935657,5.979963,-0.24017952
2026-03-04 19:18:17.146390,2.041093444280621e-276,29891.07,7.825388431549072,6.0890784,0.3585898,6.0243278,0.38601848,6.4809103,0.3665349,8.765106,0.22931269,7.0407834,0.20913237,6.5003195,0.26060593,6.2459207,0.27259797,6.568539,0.27582163,6.8143296,0.24859883,6.850258,0.16724814,8.653326,0.09928887,7.9056697,0.13743156,7.8059206,0.14919734,7.3835983,0.12863183,7.765958,0.12977237,9.645417,0.10812096,7.379814,0.06567611,7.327991,0.07146152,7.199375,0.1256917,8.408048,0.08722828,8.186923,0.10194555,8.731023,0.037230037,7.336073,0.041238192,7.4464216,0.08798488,9.650713,0.018820211,9.076707,0.0077373604,7.998464,-0.029782044,10.201138,-0.010529455,9.0286665,0.0193233,9.740873,-0.024944149,7.5091586,-0.04002023,9.295857,-0.06513161,8.8778305,-0.10084536,8.597162,-0.02423794,8.578262,-0.108362794,9.099807,-0.048679415,9.240235,-0.044405323,7.7517285,-0.07891402,8.665563,-0.10530479,8.905419,-0.044428904,6.7463765,-0.15443228,8.446644,-0.1558804,7.732925,-0.07066009,8.279099,-0.1244588,7.0882797,-0.10611051,7.2172737,-0.17755564,6.9595847,-0.2192411,5.991727,-0.20070517,7.2730007,-0.1909366,7.9673643,-0.10556471,6.4161434,-0.32169068,6.0290403,-0.24926706
2026-03-04 19:18:17.156452,1.9877043649147305e-273,29891.07,7.825268268585205,6.092095,0.35738194,6.0267205,0.39809436,6.520816,0.37248695,8.717006,0.220447,7.0236855,0.22287077,6.4657316,0.26032528,6.26371,0.2707813,6.501089,0.27248687,6.821562,0.25068673,6.818784,0.16593824,8.657244,0.106291965,7.9255977,0.13550743,7.8045435,0.14826167,7.411022,0.1358534,7.76133,0.13882545,9.648333,0.11178398,7.324387,0.0736369,7.3614426,0.08251089,7.196055,0.12108707,8.406174,0.082871504,8.123615,0.1009603,8.724046,0.040016253,7.325287,0.044237092,7.4571342,0.09342203,9.673687,0.020903453,9.067958,0.015758306,8.047634,-0.026415452,10.196505,-0.0023628385,8.9714575,0.029503455,9.790695,-0.008293623,7.509234,-0.040901106,9.278789,-0.06329785,8.809639,-0.09449548,8.5657015,-0.021336177,8.534741,-0.1016451,9.122059,-0.05291043,9.231604,-0.033669475,7.7463965,-0.077437,8.641757,-0.10414815,8.873191,-0.04175017,6.7805753,-0.14488287,8.434707,-0.14013617,7.8204055,-0.062084183,8.2810335,-0.12467147,7.1212397,-0.104304075,7.268959,-0.17041986,6.999304,-0.22020426,6.1062155,-0.19383228,7.2651906,-0.19584207,8.023385,-0.100005895,6.3420224,-0.3247555,6.0324707,-0.2450823
2026-03-04 19:18:17.161363,1.8644667893662152e-270,29891.07,7.81964635848999,6.164118,0.3343026,5.99141,0.36337677,6.538093,0.3379008,8.706251,0.19538532,6.973202,0.19101255,6.3556066,0.2454921,6.2315364,0.2556051,6.4654064,0.28692624,6.9573493,0.22827819,6.75924,0.14893386,8.539379,0.07874384,7.8644714,0.109969415,7.818123,0.11989346,7.560476,0.09793089,7.8788486,0.124715865,9.619598,0.08333661,7.227347,0.034932777,7.339559,0.064945735,7.1160526,0.11843051,8.331741,0.08088355,8.108191,0.10684569,8.880731,0.030202331,7.306449,0.02778499,7.430443,0.064769335,9.671186,-0.0015528346,9.131644,-0.0073277797,8.207506,-0.027938953,10.171536,-0.034355015,8.846788,0.00069969596,9.855706,-0.030504232,7.482827,-0.046697576,9.114823,-0.065692574,8.901767,-0.0930375,8.4751,-0.018621389,8.723003,-0.097898565,9.074272,-0.06352786,9.159973,-0.056774233,7.707697,-0.10192365,8.796258,-0.12595865,9.008733,-0.052091595,6.728708,-0.1557244,8.354623,-0.15790702,7.8657546,-0.07721392,8.291759,-0.13363408,6.952846,-0.08723826,7.3614016,-0.17414641,6.8923416,-0.20318288,6.206371,-0.18763565,7.1806326,-0.19781552,7.8802953,-0.11137471,6.35066,-0.3273244,6.0637813,-0.25861186
2026-03-04 19:18:17.176366,1.6845017612227746e-267,29891.07,7.8262410163879395,6.0946593,0.3590159,6.0128565,0.38828868,6.5082283,0.36195335,8.752689,0.209139,7.005891,0.19947107,6.44148,0.26005623,6.3095512,0.26087344,6.5190806,0.27258673,6.8747287,0.23972079,6.772242,0.16112399,8.575376,0.091395915,7.898126,0.13261038,7.83655,0.14434266,7.5247793,0.12733062,7.8630567,0.1318035,9.584219,0.101967044,7.3359165,0.052804433,7.3368473,0.06855119,7.1657677,0.12708087,8.408676,0.08146544,8.139467,0.09915294,8.778676,0.03535635,7.2879453,0.04192007,7.409615,0.07754778,9.679057,0.016727498,9.117043,0.009268601,8.133205,-0.03811207,10.141626,-0.012677566,8.980972,0.018086316,9.813734,-0.027079733,7.477666,-0.04547472,9.185181,-0.070246495,8.891798,-0.094734766,8.511174,-0.025691194,8.668093,-0.099750474,9.088283,-0.048963338,9.231322,-0.04987466,7.720562,-0.07615742,8.719972,-0.11147105,8.956643,-0.050675187,6.7015676,-0.14719813,8.408367,-0.16113883,7.834053,-0.08015847,8.29318,-0.11949469,7.0501842,-0.09748293,7.291672,-0.17154337,6.903215,-0.21896087,6.0847406,-0.19178098,7.226299,-0.19418415,7.9725184,-0.11148577,6.4049387,-0.3195555,6.0410624,-0.26320475
2026-03-04 19:18:17.186477,1.4658929081603785e-264,29891.07,7.839787006378174,6.086266,0.36483863,6.058831,0.3971,6.4721756,0.37144023,8.803602,0.22650936,7.001777,0.22097714,6.480892,0.25988206,6.2234883,0.26225087,6.5058136,0.2789352,6.8137383,0.2578463,6.838643,0.16112964,8.588504,0.11003915,7.9605894,0.14023955,7.797278,0.14694038,7.4246163,0.13624537,7.888699,0.13723196,9.615905,0.11335967,7.370248,0.0744789,7.350667,0.08523768,7.214959,0.12812127,8.330078,0.08836778,8.167199,0.10128939,8.811442,0.042976286,7.3147163,0.040215034,7.4157567,0.08702809,9.713522,0.022466153,9.093427,0.012538595,8.169101,-0.032585327,10.2086,-0.00722252,9.066599,0.026662724,9.7781925,-0.014856527,7.5032196,-0.04235514,9.214044,-0.06254096,8.888695,-0.09964039,8.614428,-0.019466475,8.636478,-0.09926694,9.160263,-0.05179215,9.200479,-0.03756299,7.71965,-0.0769164,8.715708,-0.105862856,8.98243,-0.042499006,6.7422066,-0.14251195,8.452053,-0.14082074,7.8061132,-0.06331251,8.304091,-0.12336743,7.063851,-0.102034435,7.281269,-0.17472482,6.987849,-0.21873347,6.092563,-0.19490151,7.25825,-0.19784103,7.993675,-0.095723204,6.447073,-0.3262678,6.039196,-0.25134036
2026-03-04 19:18:17.196438,1.2287031596731757e-261,29891.07,7.837933540344238,6.1328826,0.34707424,5.9684544,0.38058767,6.563647,0.35519996,8.672624,0.20127362,7.0198994,0.19868423,6.415407,0.25284395,6.2909827,0.2556245,6.4809766,0.27761215,6.924939,0.2354534,6.8473744,0.16232666,8.612576,0.09727432,7.872953,0.13475193,7.8310256,0.14024512,7.5115514,0.12551697,7.8313866,0.13362305,9.635742,0.1004119,7.2012935,0.05516748,7.43112,0.068214156,7.177101,0.12675504,8.379216,0.08081581,8.1175585,0.098514244,8.812123,0.0298463,7.313482,0.042948406,7.481496,0.086467244,9.71291,0.018545577,9.154079,0.011711769,8.187508,-0.030379783,10.189505,-0.014598997,8.837002,0.0141494265,9.908221,-0.021041257,7.523129,-0.044736367,9.199884,-0.068229966,8.970919,-0.09482504,8.484824,-0.024112025,8.759514,-0.10064469,9.106782,-0.060515467,9.223105,-0.043259457,7.735773,-0.08196914,8.742657,-0.11029496,8.971852,-0.04783359,6.723155,-0.14583145,8.282748,-0.14951615,7.9642067,-0.07169358,8.307839,-0.119867496,7.0161285,-0.09404852,7.3683677,-0.16884696,6.8617506,-0.21022542,6.2118974,-0.18882124,7.202219,-0.19455278,8.029332,-0.10237535,6.307273,-0.32155645,6.06416,-0.2555029
2026-03-04 19:18:17.201421,9.919862749427791e-259,29891.07,7.839522361755371,6.081946,0.36154702,5.998679,0.37359378,6.5372887,0.35709983,8.746648,0.21319729,6.9757996,0.20546402,6.49094,0.2651538,6.280568,0.25193018,6.5342903,0.2728604,6.9216332,0.22992724,6.7966228,0.174064,8.713141,0.11297693,7.84321,0.14939739,7.888304,0.16210741,7.4708624,0.13856891,7.8939633,0.1360819,9.632492,0.09799821,7.308334,0.060533516,7.360994,0.06917123,7.182883,0.1344081,8.377476,0.07978429,8.167787,0.09296152,8.819449,0.029780334,7.277241,0.05241731,7.50485,0.10112422,9.660217,0.034296,9.167681,0.025356615,8.178026,-0.028959438,10.213092,-0.014241364,8.989307,0.019082,9.78091,-0.01584649,7.5097127,-0.034118515,9.196025,-0.06811236,8.891524,-0.10245856,8.613523,-0.024238963,8.688642,-0.10142481,9.102322,-0.042959858,9.212183,-0.029806223,7.6750326,-0.055940595,8.78168,-0.094153635,9.006963,-0.034043983,6.7259855,-0.14810324,8.422432,-0.14410934,7.759436,-0.06574016,8.326269,-0.11485001,7.0085626,-0.10312423,7.311521,-0.1794654,6.888843,-0.21344693,6.07158,-0.19069508,7.181155,-0.18018389,8.025896,-0.08943939,6.4183106,-0.30392358,6.0429068,-0.24000803
2026-03-04 19:18:17.211511,7.713976446800514e-256,29891.07,7.845608711242676,6.128006,0.36311352,5.9825974,0.3855534,6.538115,0.37074807,8.708068,0.21293278,7.022028,0.2065546,6.417199,0.26194525,6.2811213,0.26125276,6.4809995,0.2706607,6.933077,0.24371165,6.819928,0.17176376,8.648867,0.10125369,7.86729,0.14254951,7.877902,0.15136172,7.523849,0.13655318,7.903843,0.13772462,9.619575,0.111266166,7.280152,0.06787927,7.363611,0.073167294,7.188549,0.12771523,8.391463,0.086180545,8.1737,0.095485575,8.850534,0.037477177,7.2889504,0.042631153,7.5142846,0.096359745,9.652047,0.028732512,9.1729555,0.017184246,8.13257,-0.03150086,10.194098,-0.004571696,8.996869,0.029742323,9.799183,-0.018725643,7.538911,-0.031547964,9.270707,-0.06762247,8.902576,-0.09732011,8.537415,-0.030133206,8.6930895,-0.10268829,9.148792,-0.05167628,9.209717,-0.03489928,7.757596,-0.06888869,8.739596,-0.09917936,8.96332,-0.039245892,6.758673,-0.13682793,8.410149,-0.14148253,7.836013,-0.07683089,8.244245,-0.11070706,7.0820146,-0.09744921,7.3025427,-0.17653126,6.922148,-0.22124846,6.157833,-0.18702053,7.235186,-0.19012113,8.0837555,-0.09365715,6.361332,-0.31103727,6.0646124,-0.24801798
2026-03-04 19:18:17.221546,5.777832009689691e-253,29891.07,7.84771203994751,6.114824,0.37493816,6.0664277,0.39951727,6.4465265,0.37524956,8.775663,0.22048879,6.94618,0.22300434,6.470022,0.26942682,6.21061,0.25110522,6.4792433,0.27112788,6.9499474,0.23199098,6.748961,0.1803816,8.587011,0.12918733,7.87349,0.16703981,7.833455,0.17379549,7.5796905,0.16406256,8.003532,0.15135305,9.563812,0.116148494,7.409311,0.082438394,7.2955723,0.08614967,7.21183,0.13774773,8.349254,0.07987418,8.177134,0.09925364,8.889923,0.032343604,7.1947527,0.05923893,7.4517126,0.12858939,9.688054,0.04831714,9.16284,0.032379944,8.309601,-0.023151802,10.201653,-5.714108e-05,9.099259,0.039835755,9.758075,-0.003274217,7.5440817,-0.02220016,9.173833,-0.066448994,8.903046,-0.10181752,8.568205,-0.02207779,8.796029,-0.10606262,9.054965,-0.03389534,9.179789,-0.008555424,7.657951,-0.046827763,8.807214,-0.074518,9.121715,-0.021962577,6.703341,-0.14045057,8.472996,-0.13377312,7.775297,-0.051270235,8.332554,-0.1082881,7.03097,-0.10014644,7.3487353,-0.17340435,6.900547,-0.21666609,6.198275,-0.19743061,7.131758,-0.1723739,8.040373,-0.07002781,6.384525,-0.29250383,6.1064825,-0.23188011
2026-03-04 19:18:17.226533,4.168362398597535e-250,29891.07,7.847369194030762,6.1428113,0.35620537,5.9427867,0.39471146,6.539756,0.38174912,8.712656,0.22372642,7.0687566,0.22001682,6.4663377,0.26506326,6.2162967,0.2711261,6.542093,0.28580177,6.8748255,0.2500295,6.871439,0.17106207,8.686992,0.112002775,7.874589,0.15157266,7.8399606,0.15393132,7.4790506,0.13570824,7.8414,0.14423919,9.6822,0.11629165,7.286444,0.069375336,7.3752303,0.0796179,7.1594725,0.1273987,8.345622,0.09116181,8.195176,0.10239697,8.835264,0.041656848,7.3433204,0.04782171,7.50778,0.094953366,9.680055,0.029847644,9.116193,0.018898876,8.145853,-0.032783575,10.260019,-0.006370966,8.99264,0.024203947,9.781579,-0.018380066,7.454475,-0.039883766,9.260036,-0.066976,8.83646,-0.10675113,8.646011,-0.019364739,8.655058,-0.10072481,9.1681185,-0.04921629,9.234916,-0.03891849,7.6868167,-0.06940927,8.721379,-0.103502,8.976782,-0.038286302,6.8003464,-0.14550224,8.408697,-0.14678816,7.8213763,-0.06964085,8.295584,-0.11565954,7.1001096,-0.09905786,7.3191752,-0.17797275,6.980042,-0.21838167,6.0675745,-0.19434069,7.261536,-0.19715314,8.06758,-0.09913744,6.4244423,-0.32366976,6.0701056,-0.2574739
2026-03-04 19:18:17.231533,2.8965430364436886e-247,29891.07,7.841438293457031,6.100972,0.35843128,5.945523,0.3857563,6.477999,0.3662444,8.723819,0.20782018,7.014083,0.20444384,6.439142,0.2650955,6.285764,0.26738456,6.5267353,0.2738429,6.933583,0.24734265,6.8070583,0.16589296,8.600076,0.09867581,7.911757,0.13654187,7.8446827,0.14638862,7.483319,0.12999763,7.9033284,0.13631333,9.60668,0.107741125,7.304823,0.06302106,7.3998528,0.06926046,7.200707,0.12894252,8.386852,0.083022386,8.104968,0.0984095,8.797116,0.03843457,7.314901,0.03872617,7.4438295,0.08584239,9.685498,0.02375474,9.183385,0.012724399,8.19632,-0.032234427,10.222505,-0.013883245,8.980117,0.017237786,9.858123,-0.026325181,7.469222,-0.035043128,9.241409,-0.066734396,8.859243,-0.09927097,8.547525,-0.025904216,8.734862,-0.097913824,9.153924,-0.053633537,9.268247,-0.04512577,7.716458,-0.07186004,8.764943,-0.10574899,8.982949,-0.048515785,6.7456145,-0.14588651,8.379635,-0.1528257,7.8627276,-0.07946955,8.252434,-0.11500069,7.1011333,-0.094820336,7.293559,-0.17336255,6.8840103,-0.22033429,6.114906,-0.19214554,7.265322,-0.19391665,8.006781,-0.10471053,6.3581076,-0.3140506,6.068281,-0.25750986
2026-03-04 19:18:17.241553,1.9386903941223877e-244,29891.07,7.83405876159668,6.1159897,0.3362771,6.03167,0.37097216,6.466308,0.3430911,8.796831,0.19368012,6.945912,0.18097402,6.4550633,0.2555289,6.2269535,0.24511407,6.4784684,0.26143047,6.9270964,0.22944123,6.7251387,0.16444258,8.651295,0.08998729,7.9091983,0.13975918,7.825681,0.14855748,7.5261188,0.120921575,7.9040995,0.12231547,9.549928,0.09090644,7.3027015,0.042053204,7.3031917,0.04476698,7.213061,0.12361635,8.370729,0.074755065,8.095705,0.0952297,8.855499,0.032597087,7.233408,0.055075254,7.4593306,0.08138917,9.663326,0.02127062,9.207365,0.013819624,8.237077,-0.037752446,10.130944,-0.022707896,9.025149,0.008339984,9.76895,-0.034093652,7.597882,-0.038958386,9.215807,-0.07493384,8.90443,-0.09778071,8.536361,-0.025520958,8.711083,-0.10720097,9.033823,-0.045399465,9.191987,-0.046710894,7.706091,-0.06268129,8.735905,-0.10189096,9.043307,-0.04788634,6.644038,-0.15079124,8.464361,-0.157237,7.790208,-0.079935,8.318511,-0.115688674,7.0322404,-0.098010615,7.369373,-0.17219312,6.8937936,-0.20264345,6.1588545,-0.19190027,7.1671143,-0.18338694,8.011141,-0.09962876,6.3792505,-0.30610797,6.063317,-0.24103959
2026-03-04 19:18:17.246576,1.2498298368968293e-241,29891.07,7.836616039276123,6.119576,0.34909213,6.019732,0.36892325,6.4296823,0.3549394,8.802633,0.20392016,6.912877,0.20163485,6.401059,0.25181296,6.2505913,0.25162548,6.447417,0.2692338,6.9798746,0.23845443,6.754339,0.15521252,8.52997,0.08535676,7.9370017,0.12482163,7.7977424,0.1338772,7.6309237,0.12538801,8.029499,0.12887877,9.519465,0.11032202,7.35925,0.060715124,7.3151464,0.072153375,7.1859746,0.12088741,8.329518,0.08365504,8.154087,0.09438974,8.894119,0.039260603,7.2416353,0.04290464,7.4051275,0.088117726,9.701437,0.013681439,9.156405,0.0075092977,8.2829485,-0.033554643,10.09572,-0.008545294,9.013801,0.025370978,9.800045,-0.010735561,7.5319777,-0.0345876,9.136712,-0.06981196,8.931147,-0.09594952,8.5070095,-0.025720093,8.805272,-0.08854404,9.028283,-0.05291822,9.15679,-0.042375144,7.7236757,-0.089166,8.749002,-0.09747529,9.110123,-0.045429878,6.613178,-0.12550382,8.442499,-0.12980524,7.8369226,-0.0651169,8.313552,-0.10979494,7.0014052,-0.08401292,7.386648,-0.16623457,6.9010615,-0.20950548,6.2255087,-0.16861331,7.1181035,-0.19092493,7.953168,-0.085269585,6.4183226,-0.3088985,6.1160526,-0.25477073
2026-03-04 19:18:17.266647,7.760813999813088e-239,29891.07,7.855557441711426,6.1190104,0.3553763,6.014579,0.3812556,6.449004,0.35779986,8.79298,0.20545752,6.917214,0.20717688,6.511493,0.25073758,6.251572,0.25273556,6.4788585,0.2800509,6.934718,0.23594944,6.7845397,0.1621739,8.660972,0.0949102,7.920766,0.1339746,7.8148885,0.13532934,7.5365467,0.1287385,7.9493566,0.136457,9.538761,0.101880156,7.3907537,0.054183573,7.3423533,0.07548564,7.260777,0.12823324,8.414796,0.08046154,8.190655,0.09779609,8.852708,0.033986367,7.2613335,0.050315212,7.5239387,0.08938158,9.741043,0.022673368,9.146499,0.013922151,8.226294,-0.024921345,10.055395,-0.015532434,9.106114,0.021067666,9.790836,-0.015087455,7.6364326,-0.042084675,9.233389,-0.07069373,8.9061575,-0.099218264,8.5621195,-0.023870232,8.712393,-0.09711941,9.0982685,-0.048008353,9.245447,-0.038698748,7.7138786,-0.081241444,8.674644,-0.10440397,9.089537,-0.038379382,6.6520348,-0.14333561,8.526913,-0.14213334,7.8157682,-0.068401575,8.3993025,-0.11327676,7.0754795,-0.08665638,7.3779435,-0.17473976,6.911571,-0.2054118,6.1308227,-0.1769526,7.160733,-0.18822895,8.08478,-0.0901123,6.392638,-0.30925947,6.1099734,-0.24336974
2026-03-04 19:18:17.271637,4.6417058863606566e-236,29891.07,7.859657287597656,6.1003428,0.35094857,6.0193224,0.3735825,6.515048,0.3486096,8.854488,0.19187292,6.979898,0.19722626,6.4826074,0.256328,6.361222,0.25489044,6.4512086,0.27140525,6.9303517,0.22688307,6.7605357,0.16488871,8.593248,0.0984338,7.939201,0.13642246,7.8540587,0.14121953,7.549251,0.13630307,7.960292,0.13541217,9.546094,0.09778348,7.3713284,0.051026806,7.3675976,0.06572327,7.2923794,0.11237347,8.434557,0.07507905,8.137176,0.10010958,8.838497,0.02628969,7.217207,0.048003577,7.4636736,0.09273036,9.717425,0.019475915,9.214615,0.012361755,8.265019,-0.03276636,10.095523,-0.018241746,9.070832,0.018416017,9.807383,-0.015771134,7.650439,-0.046838664,9.2287245,-0.070202224,8.951934,-0.0974234,8.509266,-0.025320403,8.814708,-0.10907983,9.0281725,-0.060108326,9.202544,-0.035291966,7.772984,-0.081071794,8.695121,-0.10440207,9.102322,-0.04096546,6.58572,-0.14479145,8.450454,-0.15474288,7.855112,-0.07459344,8.416434,-0.11696855,7.0278053,-0.09365253,7.403284,-0.17681627,6.87371,-0.20591973,6.2251935,-0.19364648,7.125943,-0.1843249,8.105019,-0.09570069,6.3967667,-0.31326154,6.090143,-0.25443706
2026-03-04 19:18:17.276629,2.674003179208567e-233,29891.07,7.850703716278076,6.1228075,0.368398,5.988779,0.39361113,6.486183,0.36478075,8.715802,0.19865265,6.9615974,0.20185532,6.417913,0.25995973,6.2353354,0.26539737,6.4875827,0.27717143,6.9781823,0.25243694,6.810326,0.17052993,8.594151,0.10535239,7.90959,0.15708826,7.817624,0.15884429,7.588189,0.14683451,7.9718194,0.13630234,9.612933,0.112406194,7.2976274,0.06486996,7.348204,0.06904978,7.1591115,0.12472421,8.317382,0.084259294,8.173481,0.09979684,8.848449,0.036523677,7.3067102,0.04835054,7.4526615,0.10121743,9.72968,0.03659442,9.145094,0.023912901,8.285564,-0.03666606,10.189277,-0.008827774,9.026796,0.021087674,9.802788,-0.019730717,7.5110984,-0.035022568,9.178555,-0.07576165,8.93035,-0.09955439,8.54427,-0.022839664,8.798519,-0.10230752,9.105586,-0.044928428,9.203793,-0.029652972,7.7074895,-0.06358882,8.783629,-0.09255887,9.104103,-0.041396856,6.6969156,-0.14516377,8.422426,-0.14848687,7.914148,-0.08304945,8.263276,-0.11095355,7.043701,-0.09725246,7.36106,-0.17145558,6.890601,-0.2138088,6.2014704,-0.19415948,7.184646,-0.17964454,8.114366,-0.08951132,6.333691,-0.3044491,6.1612887,-0.2487403
2026-03-04 19:18:17.286612,1.483748103307021e-230,29891.07,7.85894775390625,6.0724406,0.3475635,6.0286417,0.385198,6.4691725,0.35978523,8.861558,0.20167753,6.9045,0.20033495,6.489978,0.2593217,6.2586913,0.25755224,6.4758143,0.28366694,6.87629,0.2402077,6.7703776,0.16057412,8.584908,0.093513764,7.90959,0.13038014,7.815024,0.13469037,7.550691,0.12792362,8.009592,0.13049825,9.543312,0.10460909,7.386201,0.0540262,7.350011,0.06501958,7.257907,0.12167044,8.338895,0.0792906,8.201706,0.10096342,8.840604,0.03339358,7.234636,0.042803958,7.4748025,0.08264509,9.7235365,0.014467322,9.227713,0.006895909,8.343476,-0.032319386,10.114868,-0.014982776,9.090679,0.014108182,9.800964,-0.025382366,7.612121,-0.044161774,9.206833,-0.07008074,8.939711,-0.097758606,8.544529,-0.028114956,8.775036,-0.09919977,9.05613,-0.06007742,9.216513,-0.05231132,7.770601,-0.09501579,8.785789,-0.115272,9.119471,-0.052945748,6.6486964,-0.14642744,8.493955,-0.1483474,7.8421135,-0.082027785,8.372815,-0.12563974,7.026448,-0.09413089,7.38751,-0.16712487,6.92654,-0.21121772,6.2108746,-0.18457115,7.144161,-0.1961722,8.044732,-0.10832541,6.3809304,-0.32591903,6.1532063,-0.26575103
2026-03-04 19:18:17.302748,7.929985464289441e-228,29891.07,7.856898307800293,6.1223245,0.36771408,5.994078,0.39646226,6.493928,0.36762437,8.791888,0.20804018,6.9991493,0.20760942,6.410136,0.27414045,6.3049,0.26299518,6.482633,0.27843833,6.882361,0.25234643,6.8034167,0.17236209,8.559455,0.09421807,7.936724,0.1395225,7.8421106,0.14646249,7.5889654,0.1408507,7.9440117,0.14066055,9.590592,0.1130602,7.32706,0.05567168,7.400967,0.072456084,7.1933565,0.1355576,8.393189,0.08038025,8.150296,0.09814488,8.812835,0.039083846,7.2882657,0.04633498,7.4234266,0.08793963,9.74208,0.02088517,9.150606,0.013348711,8.252133,-0.03241234,10.194564,-0.0057872673,9.064784,0.01636668,9.85943,-0.017262004,7.509459,-0.040400293,9.192696,-0.07189029,8.92419,-0.10748522,8.573277,-0.024945151,8.802325,-0.0983917,9.142763,-0.054726254,9.204566,-0.046424598,7.749275,-0.08050722,8.737333,-0.10307956,9.063116,-0.046668753,6.6565638,-0.14463934,8.420785,-0.15350492,7.9222035,-0.08108939,8.305449,-0.12019686,7.049071,-0.09668077,7.3723664,-0.17558686,6.9275084,-0.21114998,6.204372,-0.19434185,7.2139406,-0.19917677,8.03695,-0.10348413,6.4316673,-0.31782597,6.119181,-0.26183853
2026-03-04 19:18:17.312357,4.082240270622052e-225,29891.07,7.870691299438477,6.085125,0.36998102,5.988151,0.40220347,6.440901,0.37711278,8.819919,0.21974316,6.9540205,0.22156657,6.507214,0.26873076,6.336062,0.25508943,6.4966846,0.27721745,6.8244343,0.2415641,6.79435,0.16435792,8.6472845,0.120445155,7.909239,0.15467036,7.8783827,0.15795389,7.496233,0.15762468,7.9489164,0.14889807,9.595838,0.12286465,7.4292693,0.077268824,7.3847,0.0859408,7.28673,0.12140186,8.422644,0.08586713,8.2482,0.09984738,8.7553215,0.035761528,7.2557397,0.04243183,7.512535,0.11636961,9.708441,0.040475808,9.221352,0.02552055,8.223664,-0.024919627,10.136469,0.0033681714,9.157578,0.03424214,9.852027,-0.0064206063,7.64015,-0.036706507,9.301669,-0.071730435,8.937572,-0.10306669,8.608144,-0.028322333,8.688867,-0.10250864,9.125768,-0.046285857,9.298273,-0.018737918,7.713041,-0.063506305,8.676853,-0.0885755,9.05704,-0.03034367,6.6918983,-0.13546288,8.517191,-0.13519475,7.91439,-0.061621442,8.418307,-0.11521455,7.1684847,-0.09938811,7.3722725,-0.17313802,6.932077,-0.22262262,6.117834,-0.20131831,7.1967387,-0.1842653,8.084288,-0.08455642,6.4179716,-0.30334693,6.0796795,-0.24584135
2026-03-04 19:18:17.317166,2.0241313482056757e-222,29891.07,7.863558769226074,6.178216,0.35483658,5.997988,0.38762218,6.4564724,0.36276823,8.729568,0.20872691,6.99171,0.20865208,6.458849,0.26118743,6.2603135,0.25606117,6.489446,0.2811826,6.853959,0.24409926,6.852166,0.16811363,8.690539,0.10355714,7.9320493,0.14268795,7.836321,0.15479642,7.531541,0.13999867,7.82639,0.13651042,9.653409,0.10465389,7.3516655,0.062036723,7.410858,0.074065186,7.2185636,0.12875438,8.399164,0.07884638,8.183526,0.10445782,8.8397875,0.035596278,7.316018,0.050450552,7.4793367,0.0983112,9.647153,0.03053501,9.122498,0.024426898,8.118444,-0.030463163,10.230345,-0.009661066,9.062523,0.021978132,9.832474,-0.0142037645,7.513567,-0.035573326,9.344329,-0.06654633,8.912279,-0.09947963,8.610457,-0.015290363,8.6939945,-0.10270803,9.156133,-0.040991385,9.284753,-0.025075816,7.748094,-0.06557101,8.726296,-0.091253266,9.007985,-0.03513112,6.8014097,-0.1501325,8.440649,-0.14306685,7.8869247,-0.06577262,8.31364,-0.11220881,7.182187,-0.09761154,7.3081155,-0.16638708,6.986408,-0.20822921,6.100105,-0.18643323,7.243004,-0.18638395,8.152128,-0.08684507,6.4047,-0.3107737,6.1366005,-0.24736187
2026-03-04 19:18:17.351845,9.6670235411808e-220,29891.07,7.872901916503906,6.1567054,0.3469966,5.971248,0.3913006,6.543716,0.36213034,8.758852,0.179858,6.9473863,0.19903149,6.459756,0.2518522,6.2942533,0.26245153,6.4519963,0.2836626,6.881755,0.25251058,6.846674,0.17141585,8.590802,0.09326636,7.931246,0.14661476,7.8393965,0.14864284,7.587063,0.13675617,7.956618,0.14695965,9.654059,0.10890775,7.350161,0.04708507,7.4071603,0.06261159,7.22385,0.11409229,8.370484,0.07985544,8.221165,0.10785333,8.801609,0.032261875,7.2508817,0.051974963,7.450826,0.09174975,9.753728,0.027800532,9.167053,0.017295122,8.291952,-0.032556962,10.199143,-0.008653115,9.130781,0.01677838,9.810921,-0.02522385,7.596383,-0.045589607,9.268451,-0.08114475,8.918661,-0.10107002,8.578909,-0.024198396,8.745156,-0.1053652,9.169724,-0.04611262,9.257669,-0.037174676,7.6970816,-0.075170755,8.726827,-0.09946654,9.116171,-0.03850458,6.6714363,-0.14996235,8.529786,-0.15532006,7.93079,-0.0827768,8.329853,-0.11060515,7.1536174,-0.07990353,7.3939505,-0.15975708,6.944237,-0.1997056,6.2079654,-0.19525568,7.1658206,-0.19159815,8.197969,-0.09003454,6.3259945,-0.31353414,6.1632123,-0.26596382
2026-03-04 19:18:17.371939,4.4469353774631805e-217,29891.07,7.85835075378418,6.1859703,0.35080996,5.9734893,0.39072007,6.5298247,0.3651091,8.690658,0.18992019,6.983382,0.20180498,6.3630037,0.25291178,6.237466,0.26855794,6.4717364,0.29100806,6.911503,0.25826153,6.855905,0.1682154,8.573716,0.087267056,7.909083,0.14208971,7.8373146,0.14332533,7.610058,0.12963895,7.9206257,0.13870169,9.646335,0.11062009,7.2943997,0.052935444,7.367405,0.061031282,7.182284,0.11911864,8.334766,0.086451314,8.19636,0.112241015,8.8777895,0.039741453,7.2513075,0.04383235,7.4444118,0.07899873,9.749977,0.022474522,9.147026,0.006508148,8.219035,-0.035260413,10.248926,-0.010307411,9.033723,0.014548479,9.856008,-0.0225045,7.5305176,-0.050793592,9.169131,-0.073530145,8.905317,-0.095676534,8.547606,-0.017909449,8.739486,-0.1049091,9.110752,-0.057901915,9.186585,-0.045765787,7.734807,-0.085658975,8.784931,-0.11468384,9.065126,-0.044170048,6.7673554,-0.1527862,8.415763,-0.158995,7.966833,-0.09510393,8.2830105,-0.11969594,7.045586,-0.08904813,7.402053,-0.16113621,6.9345217,-0.21229081,6.236211,-0.19633877,7.2162166,-0.19986573,8.1178255,-0.11608672,6.3806577,-0.32866886,6.190486,-0.2769749
2026-03-04 19:18:17.376842,1.970347455849909e-214,29891.07,7.848330497741699,6.14085,0.36059123,6.056126,0.38974708,6.480835,0.35901448,8.778279,0.19159447,6.9367304,0.20589778,6.479775,0.25444204,6.2281322,0.25508952,6.437199,0.28418416,6.920956,0.23993282,6.727357,0.17629509,8.536985,0.11068881,7.9458547,0.1614866,7.76845,0.16143548,7.580139,0.14740798,7.992386,0.14675975,9.517506,0.102025025,7.396862,0.055451714,7.3302827,0.06755403,7.18178,0.12183409,8.366713,0.07725591,8.153395,0.109308064,8.872203,0.03171808,7.217216,0.061954588,7.395095,0.109644465,9.719618,0.038280174,9.150788,0.026600255,8.283725,-0.021337552,10.068794,-0.010469038,9.158103,0.025403166,9.712904,-0.015357681,7.593798,-0.04132481,9.188841,-0.07178983,8.935395,-0.09659015,8.522916,-0.02137997,8.823637,-0.11000623,9.046603,-0.041036647,9.144213,-0.022889078,7.7165065,-0.064584635,8.731839,-0.087347604,9.159767,-0.031991396,6.6275945,-0.15639377,8.518564,-0.14464262,7.792609,-0.06815705,8.337438,-0.10938029,6.9874244,-0.091164485,7.3983436,-0.16202214,6.921512,-0.20588645,6.2690997,-0.19741412,7.1472726,-0.17617483,8.086135,-0.084949054,6.454493,-0.29451147,6.174167,-0.24541636
2026-03-04 19:18:17.401925,8.408891977729362e-212,29891.07,7.870917320251465,6.153323,0.3560522,6.0354486,0.3901867,6.4822264,0.3695519,8.736201,0.20310798,6.9282737,0.21130212,6.5113745,0.2579042,6.2420096,0.25643173,6.475442,0.28478873,6.8834386,0.24607584,6.8404393,0.1778387,8.69056,0.11327623,7.902267,0.15678564,7.794083,0.16317943,7.4729147,0.15277852,7.958654,0.14348102,9.608453,0.11632153,7.3729897,0.0643416,7.3316674,0.06461918,7.267066,0.1206358,8.384081,0.083830364,8.217084,0.102917455,8.83064,0.03256122,7.2451363,0.058064636,7.534034,0.10894816,9.6746235,0.038776238,9.163051,0.026133176,8.233219,-0.029055748,10.192766,-0.0059683085,9.168502,0.023056543,9.785887,-0.018738734,7.5895534,-0.03276124,9.27933,-0.07001415,8.920947,-0.10234169,8.657723,-0.019475924,8.705453,-0.10095825,9.140138,-0.03406075,9.263832,-0.026501216,7.6921754,-0.055735573,8.735791,-0.08992158,9.139874,-0.03661222,6.730544,-0.14180896,8.532552,-0.1507436,7.8603234,-0.07514748,8.308326,-0.104821675,7.111477,-0.09048969,7.4160104,-0.160246,6.98341,-0.2093589,6.189049,-0.18767834,7.2345223,-0.19110966,8.208911,-0.084838755,6.347799,-0.30448738,6.124066,-0.24750964
2026-03-04 19:18:17.416975,3.4565965045886174e-209,29891.07,7.873967170715332,6.1376166,0.3575706,6.0475745,0.39375728,6.530932,0.36216322,8.73217,0.1801298,6.9742875,0.19919656,6.5078325,0.25690982,6.328178,0.25996634,6.4684696,0.27737314,6.79755,0.24758136,6.8097825,0.16851616,8.709395,0.09798878,7.939202,0.14487162,7.826066,0.14690289,7.483133,0.14639606,7.8842716,0.14701697,9.654515,0.10749159,7.3901424,0.05313234,7.3906355,0.06646572,7.3093715,0.11797601,8.46438,0.076900855,8.19027,0.10341702,8.7105465,0.031024136,7.224498,0.051693153,7.572336,0.10217053,9.695397,0.028974669,9.179442,0.01626684,8.18164,-0.028284792,10.157276,-0.0076587433,9.181458,0.028117307,9.782793,-0.009694998,7.652001,-0.043717615,9.373649,-0.07091232,8.926965,-0.09851998,8.572898,-0.018522091,8.661955,-0.10687812,9.123375,-0.046471786,9.3338,-0.024588855,7.7657566,-0.0657439,8.647922,-0.08940978,9.01354,-0.03141086,6.676158,-0.13888946,8.515025,-0.14917044,7.8955474,-0.073044114,8.387354,-0.10906942,7.1578703,-0.09017829,7.343129,-0.1677588,6.959742,-0.20632598,6.214508,-0.18261296,7.190813,-0.18007797,8.305232,-0.09105559,6.2845054,-0.30070284,6.1833506,-0.2544565
2026-03-04 19:18:17.431965,1.3685874599002777e-206,29891.07,7.872945308685303,6.1967473,0.36147577,5.9082794,0.40438503,6.6345916,0.37627935,8.5936575,0.19385773,7.035008,0.19933575,6.3766747,0.2678443,6.3223095,0.26379743,6.432526,0.29048124,6.823749,0.2553557,6.9364476,0.16989273,8.611432,0.09015573,7.931202,0.13727474,7.7998085,0.13749066,7.5593834,0.14124049,7.7908225,0.14444022,9.733709,0.1136862,7.256095,0.048808474,7.4516273,0.067511916,7.173163,0.12204633,8.466313,0.089251086,8.208014,0.10526172,8.767987,0.039337438,7.342181,0.047064103,7.5451775,0.083928905,9.737975,0.016883763,9.103923,0.0021182366,8.058282,-0.032901164,10.317853,-0.013482064,9.021251,0.018435251,9.917473,-0.025253559,7.523036,-0.047556832,9.339067,-0.0751719,8.910698,-0.10404921,8.570146,-0.025569506,8.66615,-0.11373812,9.28911,-0.060627073,9.311822,-0.043251257,7.819075,-0.0923161,8.633417,-0.10795939,8.987065,-0.048711132,6.7893324,-0.16135105,8.4634,-0.16108471,8.067414,-0.08816167,8.217216,-0.12363336,7.1495943,-0.08420327,7.3648686,-0.16849782,7.02162,-0.217728,6.2282567,-0.19002324,7.285633,-0.20155717,8.224593,-0.11808049,6.3384953,-0.3200053,6.139461,-0.2776793
2026-03-04 19:18:17.436900,5.219277439623461e-204,29891.07,7.872602462768555,6.1670785,0.35290188,6.0264163,0.38817936,6.519001,0.36468372,8.756226,0.18489906,6.917729,0.19850618,6.4600763,0.25515273,6.286807,0.2613502,6.4465547,0.28688094,6.93926,0.2516509,6.73993,0.16690965,8.555982,0.08203188,7.9062963,0.1324425,7.866784,0.13711746,7.6579804,0.13404399,8.08834,0.14155127,9.567497,0.11339162,7.3624706,0.04800047,7.3717475,0.061175626,7.2008257,0.12027341,8.367909,0.081863105,8.240749,0.10531707,8.852589,0.038181532,7.1729617,0.04887718,7.4454193,0.08714268,9.741727,0.019577967,9.242596,0.007937011,8.354431,-0.032711226,10.178966,-0.009572173,9.152315,0.021673387,9.771902,-0.013004361,7.6521697,-0.05283053,9.18394,-0.076549605,8.933918,-0.104030214,8.577019,-0.025269555,8.769626,-0.10076438,9.106085,-0.053937126,9.191725,-0.044324968,7.712448,-0.09336374,8.764009,-0.09810732,9.22959,-0.04711349,6.620794,-0.14837691,8.542373,-0.14693047,7.874706,-0.07932322,8.328519,-0.11374859,7.037281,-0.08688862,7.38614,-0.16563112,6.923329,-0.20170419,6.2838,-0.18023627,7.124882,-0.19486576,8.206252,-0.1024333,6.3729806,-0.3188535,6.1952133,-0.2757383
2026-03-04 19:18:17.441948,1.917176808730188e-201,29891.07,7.864952087402344,6.1405044,0.3476882,5.968392,0.40781647,6.5533385,0.36359352,8.73154,0.18118681,6.919163,0.2030357,6.3934126,0.24949996,6.2580104,0.2619926,6.4435415,0.28753388,6.963254,0.25451133,6.8437324,0.17428614,8.607227,0.090305045,7.9618077,0.14650202,7.746903,0.14807822,7.5838304,0.14700639,7.933778,0.14755213,9.619136,0.11062694,7.350159,0.05139721,7.4004345,0.061771296,7.174092,0.108216465,8.35228,0.08135955,8.219379,0.1059233,8.798115,0.03723106,7.3276725,0.050884858,7.4800253,0.09404306,9.795555,0.027477922,9.118948,0.01662961,8.262844,-0.026094867,10.197845,-0.012718266,9.12067,0.024734437,9.867125,-0.015415494,7.5922127,-0.05202392,9.160702,-0.08042876,8.922119,-0.10028606,8.590967,-0.021237195,8.737131,-0.10789425,9.202362,-0.056588776,9.198548,-0.035792943,7.739205,-0.08147781,8.71923,-0.09752577,9.104346,-0.044057082,6.684776,-0.15243898,8.507978,-0.15476716,7.960107,-0.07998352,8.31452,-0.11909279,7.0587354,-0.08264399,7.361789,-0.15983818,6.9335213,-0.19804348,6.2312665,-0.19900584,7.1858625,-0.19324525,8.186686,-0.09932415,6.320541,-0.30725214,6.132247,-0.2679986
2026-03-04 19:18:17.447732,6.783095124449268e-199,29891.07,7.869016647338867,6.1550894,0.36653993,5.967022,0.4074335,6.5303226,0.3820265,8.660273,0.19719188,7.0430427,0.20924874,6.399424,0.26971203,6.3146334,0.26167363,6.430621,0.2855046,6.863705,0.25428665,6.8693447,0.18512404,8.629744,0.10827811,7.9194903,0.15799642,7.824067,0.1681691,7.562398,0.15473069,7.8837748,0.14809369,9.686046,0.12186864,7.2945404,0.06335459,7.4036474,0.06791002,7.1496267,0.12046004,8.41894,0.08699114,8.192088,0.10327278,8.774344,0.03940861,7.3238034,0.061557546,7.543099,0.10780201,9.747774,0.043918762,9.135612,0.026804492,8.197383,-0.032134708,10.225897,0.0016052272,9.067858,0.028168375,9.886952,-0.010786417,7.5193734,-0.03784257,9.259478,-0.07685181,8.891217,-0.105665,8.5538,-0.024433162,8.70824,-0.10389939,9.2086525,-0.040334735,9.288824,-0.02196038,7.7397084,-0.06173329,8.689097,-0.081240505,9.024684,-0.04006221,6.766005,-0.14735843,8.4569845,-0.14551191,7.9941506,-0.07566828,8.313723,-0.11081361,7.132221,-0.08990208,7.3853946,-0.16357781,6.9778233,-0.21649028,6.2672634,-0.19360724,7.2138815,-0.18755999,8.182014,-0.081319325,6.3724346,-0.30270323,6.1433263,-0.2557376
2026-03-04 19:18:17.452053,2.311572957608466e-196,29891.07,7.863851070404053,6.0832148,0.36565867,6.0450497,0.39314377,6.47501,0.36779776,8.76236,0.18236451,6.919039,0.19565403,6.4765916,0.25677156,6.2581015,0.26538768,6.424751,0.28388727,6.9297414,0.2527147,6.7518816,0.17364722,8.5614195,0.10700804,7.958746,0.1605963,7.791259,0.15827386,7.6064925,0.15248545,8.08663,0.14700773,9.525554,0.11776025,7.4103193,0.054179486,7.3163958,0.052850246,7.2308664,0.11908195,8.397717,0.08292884,8.20493,0.10092371,8.809441,0.03395542,7.185669,0.05441404,7.4069505,0.10344628,9.769572,0.04375602,9.136938,0.025635,8.311758,-0.031099075,10.108022,-0.0028669408,9.213011,0.01609767,9.769809,-0.019939216,7.660802,-0.038268387,9.180644,-0.07967921,8.914562,-0.10065174,8.5608635,-0.023827255,8.779014,-0.10978056,9.072035,-0.052730557,9.209775,-0.018963253,7.730424,-0.06112634,8.729283,-0.08581269,9.150736,-0.03811976,6.593743,-0.14770025,8.554333,-0.14947125,7.8922257,-0.084828824,8.353525,-0.10775402,7.069191,-0.09655448,7.4097934,-0.16337541,6.912931,-0.21053036,6.307491,-0.19071916,7.2113113,-0.17686985,8.167978,-0.09117465,6.3445225,-0.29875058,6.187868,-0.25609
2026-03-04 19:18:17.457074,7.587544648465809e-194,29891.07,7.866670608520508,6.1943645,0.3771224,5.945631,0.39877155,6.5658607,0.37825206,8.587598,0.18563055,7.009389,0.19716302,6.4247813,0.26178348,6.3239613,0.27508262,6.44896,0.27700642,6.82681,0.26038897,6.815233,0.17149885,8.579493,0.10588588,7.919657,0.15971278,7.8628545,0.15517648,7.6342278,0.16064148,7.967438,0.15003823,9.673343,0.124308795,7.295937,0.06855814,7.3676853,0.061227534,7.186856,0.11742112,8.460991,0.08833568,8.234732,0.10214509,8.698945,0.042178296,7.2393413,0.0512413,7.530261,0.109921426,9.738413,0.04136386,9.091184,0.02041177,8.167129,-0.034627013,10.260446,0.0072307563,9.139351,0.03665194,9.812408,-0.013489109,7.5687275,-0.040993836,9.300393,-0.076915264,8.9169035,-0.1045833,8.548908,-0.026369633,8.692471,-0.10964582,9.183589,-0.049575813,9.274327,-0.01654908,7.7399144,-0.06996366,8.644427,-0.081374496,9.064434,-0.031616706,6.7077518,-0.13965118,8.493605,-0.14861806,7.926413,-0.07869319,8.25572,-0.10228215,7.1676087,-0.09491416,7.3688755,-0.16613884,6.9340796,-0.21484703,6.215215,-0.19209276,7.2166066,-0.17798875,8.221732,-0.09415643,6.380155,-0.29798102,6.241685,-0.2603936
2026-03-04 19:18:17.467042,2.398881919340532e-191,29891.07,7.861353397369385,6.1135516,0.35064626,6.042166,0.3926062,6.5219846,0.36132652,8.732857,0.18120271,6.966304,0.19243725,6.4853897,0.24937974,6.2933764,0.26910686,6.4318886,0.28936365,6.911819,0.26152626,6.7390766,0.17673163,8.5795965,0.08460801,7.9493103,0.13760866,7.814388,0.13753854,7.55819,0.12744603,8.024243,0.13807718,9.559653,0.10754028,7.366054,0.049166624,7.343632,0.051818855,7.26385,0.11350465,8.381783,0.08567085,8.167867,0.110174134,8.782512,0.037324645,7.2226496,0.0485965,7.489952,0.08293885,9.734843,0.016109038,9.182034,0.004908018,8.319482,-0.036854904,10.131947,-0.013295591,9.119518,0.011146234,9.735722,-0.02619901,7.6105247,-0.04751175,9.254991,-0.07818362,8.907053,-0.09995347,8.562881,-0.02253677,8.762446,-0.10144063,9.08329,-0.059618764,9.206826,-0.050107084,7.753726,-0.087137714,8.684052,-0.11645658,9.174824,-0.048856683,6.611303,-0.15691903,8.522594,-0.1617613,7.8840466,-0.09332287,8.324282,-0.1176815,7.069365,-0.08731188,7.390256,-0.16450818,6.9251275,-0.20784314,6.2595844,-0.19072066,7.136482,-0.19654635,8.151263,-0.11357313,6.3913207,-0.32447746,6.158489,-0.28120774
2026-03-04 19:18:17.472189,7.305171893581212e-189,29891.07,7.861548900604248,6.146596,0.3658687,5.9551826,0.39010027,6.504888,0.36276755,8.708929,0.18672106,7.054581,0.18959199,6.408119,0.26892385,6.2658997,0.27021596,6.4561286,0.2825171,6.9307113,0.24753915,6.877893,0.18400863,8.579769,0.10230025,7.926806,0.16258623,7.780274,0.16557737,7.6226134,0.15122637,7.8473444,0.14814927,9.650692,0.10744895,7.3333297,0.04832786,7.4031215,0.050562814,7.1483793,0.113891855,8.372282,0.08235526,8.214249,0.10229876,8.788565,0.03172329,7.3108363,0.058481235,7.462948,0.09858163,9.733365,0.038931128,9.061081,0.026162382,8.183421,-0.03281414,10.282503,-0.011242993,9.108424,0.01150009,9.867026,-0.02610143,7.5014725,-0.043094363,9.249578,-0.08204302,8.873503,-0.10251393,8.605231,-0.023496913,8.736626,-0.11465142,9.186092,-0.04835932,9.257433,-0.0324092,7.72288,-0.067966424,8.706894,-0.09195732,9.025942,-0.044299953,6.7265677,-0.1537015,8.51631,-0.16687143,7.948011,-0.09570584,8.233922,-0.117100075,7.112844,-0.10504042,7.3674283,-0.16593578,6.9375544,-0.21546438,6.2104363,-0.19541869,7.236492,-0.18786684,8.139995,-0.10670674,6.4235454,-0.3024058,6.0958347,-0.26156527
2026-03-04 19:18:17.477120,2.1427226717456843e-186,29891.07,7.876439571380615,6.093827,0.35000733,6.0670137,0.39497757,6.484717,0.36872843,8.749186,0.1808347,6.845001,0.19665396,6.5542192,0.25075316,6.249581,0.2700122,6.491535,0.2943048,6.9177194,0.25501046,6.717928,0.17013109,8.690005,0.08222209,7.8708906,0.137727,7.834933,0.13304302,7.601255,0.12948385,8.086915,0.14033191,9.546298,0.10568765,7.3889327,0.045044538,7.283752,0.05697272,7.3016815,0.11241444,8.449304,0.08292668,8.225416,0.11005413,8.798625,0.037035536,7.1274004,0.042108018,7.588081,0.08266999,9.734093,0.0150621645,9.248288,0.0067973738,8.336283,-0.03212047,10.102313,-0.01073612,9.212972,0.010001408,9.696002,-0.023798952,7.766662,-0.05134911,9.29494,-0.07364881,8.966209,-0.10454388,8.588789,-0.021000799,8.715543,-0.10424556,9.01545,-0.06150202,9.257139,-0.04919215,7.730279,-0.09529739,8.73304,-0.11040332,9.215602,-0.050560754,6.588149,-0.15228014,8.564483,-0.15738094,7.8132815,-0.09153677,8.439794,-0.11925588,7.127586,-0.091125906,7.422238,-0.16603154,6.903514,-0.20281194,6.211306,-0.18169472,7.0979614,-0.19795005,8.237464,-0.11625621,6.3429317,-0.32816035,6.248355,-0.28624305
2026-03-04 19:18:17.482104,6.053624060118734e-184,29891.07,7.865765571594238,6.1559916,0.34977758,5.998823,0.37158826,6.5285144,0.3464019,8.737684,0.15575056,6.9455085,0.16507761,6.456887,0.2563707,6.319233,0.27111325,6.47777,0.28118894,6.8953342,0.24613799,6.81659,0.16103171,8.648825,0.07209313,7.892897,0.12903915,7.8069935,0.12435721,7.5459166,0.123157725,7.957387,0.12756704,9.660625,0.09999338,7.36435,0.029803263,7.343585,0.023806447,7.2615147,0.104752876,8.408756,0.08371511,8.242617,0.098392144,8.760365,0.028989356,7.204615,0.046670653,7.5481033,0.06433884,9.696571,0.0044059493,9.132677,-0.005953557,8.23842,-0.049879868,10.149806,-0.025574433,9.15713,-0.0020727844,9.783704,-0.04293402,7.6337147,-0.0560531,9.268759,-0.085347086,8.8975115,-0.108940706,8.570581,-0.030628119,8.667774,-0.111913726,9.129105,-0.067564085,9.261921,-0.055977397,7.7274556,-0.09671927,8.661807,-0.11165746,9.08389,-0.05973435,6.6322784,-0.16703464,8.546954,-0.17875244,7.9182014,-0.11298911,8.305947,-0.12321159,7.1375556,-0.09686937,7.402608,-0.17279217,6.900022,-0.20032427,6.210512,-0.18970256,7.2165103,-0.19064201,8.216142,-0.12844938,6.293486,-0.32371145,6.199853,-0.28815058
2026-03-04 19:18:17.508082,1.6473234708176416e-181,29891.07,7.866744518280029,6.1858425,0.36291564,5.9515843,0.40774962,6.553041,0.37504122,8.696941,0.19287238,6.9459724,0.21325728,6.407871,0.2606605,6.3052588,0.25880468,6.4413095,0.28713953,6.9278755,0.2587448,6.830909,0.18132897,8.617825,0.10286016,7.873008,0.15641335,7.827299,0.16237439,7.592774,0.15508364,7.93467,0.15353645,9.62042,0.1184684,7.3221703,0.06322698,7.390059,0.071097046,7.1759167,0.12396141,8.381619,0.07972702,8.2306,0.10817092,8.7879,0.04155731,7.2727203,0.056832813,7.5150743,0.1095011,9.706144,0.03802803,9.166805,0.027065285,8.21054,-0.027801447,10.230708,-0.0004775266,9.08985,0.0258436,9.888995,-0.01232713,7.582464,-0.035557512,9.184959,-0.07582785,8.956798,-0.10188631,8.563173,-0.026129454,8.728088,-0.09972449,9.168565,-0.049471203,9.218859,-0.02687173,7.7189674,-0.06888908,8.748885,-0.08576299,9.127303,-0.039871246,6.704289,-0.13686055,8.445351,-0.14496018,7.952671,-0.076204464,8.319517,-0.104313694,7.0887275,-0.085646555,7.420559,-0.1607448,6.9287934,-0.20463026,6.286303,-0.190455,7.1782765,-0.18984781,8.188809,-0.081615984,6.329962,-0.29977167,6.1476793,-0.26224717
2026-03-04 19:18:17.537361,4.3177379651189385e-179,29891.07,7.868988513946533,6.139375,0.36105433,6.044863,0.391321,6.4604454,0.3624925,8.738121,0.18427151,6.960612,0.19384211,6.502412,0.26416758,6.23639,0.26694182,6.5143237,0.2916152,6.856608,0.26122093,6.7989054,0.18146232,8.64108,0.09481034,7.889629,0.16091219,7.7976832,0.16282824,7.5599833,0.14474683,7.991879,0.13846931,9.62597,0.10800434,7.3854823,0.050303973,7.286374,0.04975416,7.2565494,0.119081035,8.340111,0.079146124,8.239191,0.104840755,8.785475,0.03395688,7.202955,0.057223905,7.5344286,0.094459854,9.704429,0.03276277,9.142326,0.022841578,8.267188,-0.037867445,10.20119,-0.010619222,9.24839,0.0141312275,9.734599,-0.02757282,7.6143417,-0.050702415,9.27028,-0.08660113,8.86654,-0.10200369,8.622021,-0.01228492,8.666075,-0.113905765,9.119006,-0.05493558,9.272182,-0.03479665,7.6931753,-0.0677435,8.707642,-0.09625008,9.172189,-0.047329947,6.681317,-0.16421667,8.533047,-0.16587546,7.854347,-0.09257638,8.350399,-0.11836319,7.1456356,-0.098880626,7.365537,-0.16113366,6.9762836,-0.21001306,6.1917267,-0.20012131,7.1743984,-0.19206496,8.242172,-0.10290301,6.344041,-0.3142641,6.238072,-0.26710385
2026-03-04 19:18:17.547261,1.0900530523660271e-176,29891.07,7.872909069061279,6.2008815,0.35259846,6.0241385,0.40300065,6.5565085,0.37468413,8.675858,0.18589151,6.9665065,0.20548461,6.437648,0.25160575,6.2701826,0.26379386,6.4593296,0.28830215,6.8215904,0.25421587,6.8605747,0.16583441,8.601863,0.09099501,7.899499,0.1373356,7.8227396,0.13232663,7.5412765,0.13702136,7.897428,0.14576088,9.700454,0.11828932,7.3463645,0.052565254,7.4165606,0.0690662,7.2288957,0.11827674,8.380124,0.087075405,8.214609,0.10748879,8.764759,0.038386025,7.2760873,0.044896383,7.536962,0.091789246,9.726642,0.025667058,9.131789,0.004795679,8.219091,-0.029808577,10.216894,-0.0056323856,9.12613,0.02088526,9.825683,-0.012303238,7.609486,-0.042948063,9.297356,-0.06897316,8.918574,-0.102346025,8.595703,-0.020895682,8.71821,-0.09824211,9.183629,-0.052077964,9.301871,-0.03973689,7.758078,-0.08603823,8.678334,-0.108811885,9.056977,-0.031014021,6.695635,-0.13673978,8.474578,-0.15144181,7.9890738,-0.07532337,8.311836,-0.11050054,7.1282415,-0.07696046,7.398847,-0.1647177,6.9801493,-0.20490867,6.2279673,-0.18902916,7.1918726,-0.18919347,8.181944,-0.09800094,6.3447833,-0.31735837,6.2010374,-0.27050415
2026-03-04 19:18:17.557247,2.6506534141027505e-174,29891.07,7.861288070678711,6.2002897,0.35283005,6.010106,0.395476,6.563345,0.3648937,8.678196,0.1757602,6.959304,0.18947308,6.4507174,0.25783086,6.276736,0.26413405,6.463481,0.2781165,6.8671536,0.26301742,6.823443,0.17403121,8.580074,0.08001023,7.9270883,0.13409862,7.7791767,0.13780414,7.584639,0.13480417,7.9128904,0.13792434,9.664148,0.1097728,7.375048,0.048879243,7.3636,0.04740115,7.181123,0.11352802,8.350955,0.08506452,8.244741,0.105267815,8.779801,0.035211366,7.250442,0.05048769,7.473322,0.07562243,9.698485,0.019725211,9.117224,0.005437181,8.192234,-0.036349818,10.221666,-0.011299439,9.147278,0.010371614,9.827379,-0.022680482,7.5780234,-0.046557534,9.227989,-0.08014719,8.873549,-0.10427574,8.583089,-0.0197234,8.664568,-0.10623284,9.183124,-0.063856795,9.20192,-0.04609351,7.703817,-0.08294799,8.706759,-0.108081125,9.095135,-0.051490124,6.67569,-0.15658085,8.499364,-0.16757415,7.9115314,-0.09406555,8.297754,-0.116259664,7.0924544,-0.09005701,7.3780484,-0.16156542,6.983144,-0.20634316,6.241096,-0.18726656,7.1958184,-0.19203421,8.218243,-0.12039099,6.3208914,-0.32216495,6.190881,-0.27885056
2026-03-04 19:18:17.562231,6.208293099604257e-172,29891.07,7.864091873168945,6.182026,0.37319502,6.0282598,0.40746343,6.5361867,0.38132238,8.6970215,0.1939614,6.9324994,0.21673296,6.435057,0.26334262,6.275194,0.2592794,6.421031,0.26367638,6.9297166,0.26111114,6.7844715,0.1753423,8.562195,0.10669302,7.913338,0.15185158,7.821811,0.15532507,7.625342,0.16034205,7.980682,0.14737232,9.61525,0.13026135,7.330139,0.07528165,7.376802,0.080302835,7.1901555,0.1305011,8.367102,0.08526057,8.210126,0.09622552,8.812998,0.03964128,7.2073603,0.0445835,7.483704,0.10948647,9.752538,0.041744173,9.107603,0.023396838,8.269139,-0.03045517,10.172721,0.011892474,9.140711,0.0417912,9.781704,0.00071637426,7.574628,-0.029159877,9.20404,-0.07253353,8.906455,-0.10403535,8.544958,-0.028802063,8.78895,-0.0948431,9.139513,-0.046833854,9.24001,-0.022041673,7.713627,-0.06834215,8.729755,-0.08250775,9.138864,-0.0328149,6.6436706,-0.12469226,8.458857,-0.12876405,7.9190917,-0.06421902,8.333566,-0.0955346,7.0834937,-0.084296085,7.425673,-0.16102631,6.94645,-0.21215723,6.297345,-0.18715736,7.148387,-0.18569873,8.209507,-0.07948498,6.3616223,-0.29864436,6.181416,-0.25534248
2026-03-04 19:18:17.572311,1.4005719879361783e-169,29891.07,7.870224475860596,6.1067214,0.36133814,6.0070605,0.3958175,6.467938,0.3641026,8.716624,0.18082206,6.949732,0.20257695,6.5596805,0.25591645,6.3462534,0.26339358,6.448002,0.28613496,6.9025965,0.25072744,6.748486,0.18035403,8.580465,0.10640376,7.952884,0.16031124,7.80049,0.1556275,7.5814395,0.15268414,8.020285,0.1503081,9.557205,0.112301335,7.39039,0.05471305,7.3556776,0.059674546,7.2640815,0.11539517,8.455327,0.08086202,8.199368,0.106961064,8.77204,0.03353944,7.1751695,0.05164937,7.531771,0.107030556,9.776957,0.037873566,9.152567,0.02431367,8.275312,-0.031209122,10.074409,-0.0059337984,9.184074,0.028825821,9.796761,-0.017399386,7.6842504,-0.04782613,9.269314,-0.08258309,8.951004,-0.10097877,8.553013,-0.025530862,8.764064,-0.10816311,9.1062355,-0.04848461,9.282427,-0.025969831,7.7114935,-0.06690292,8.637903,-0.09312017,9.161717,-0.037696306,6.610334,-0.14998052,8.553528,-0.15626292,7.885421,-0.08903477,8.411245,-0.10753066,7.088557,-0.09379119,7.4044094,-0.1574217,6.891813,-0.21065894,6.230754,-0.19918342,7.132858,-0.18413797,8.215733,-0.10082807,6.376078,-0.30712494,6.179769,-0.264694
2026-03-04 19:18:17.577313,3.0433550143207458e-167,29891.07,7.860666751861572,6.203883,0.3544308,5.9424615,0.3837258,6.5818677,0.3545854,8.6493845,0.16969949,6.9782047,0.17695245,6.3387876,0.260765,6.2409334,0.2623293,6.4311576,0.2832107,6.968185,0.26054177,6.915,0.17817235,8.525329,0.07254041,7.923903,0.14277212,7.7858214,0.14116423,7.6627326,0.13260983,7.9191566,0.1334034,9.693521,0.10439991,7.247824,0.04068534,7.3930864,0.042315803,7.110645,0.117911726,8.309666,0.08295861,8.178593,0.106055595,8.850893,0.0393553,7.3183002,0.04767537,7.481035,0.08148446,9.747329,0.019929059,9.087869,0.007928822,8.239783,-0.038374424,10.257029,-0.011616168,8.997976,0.01050076,9.864512,-0.031554252,7.4507413,-0.046133466,9.20941,-0.077338815,8.882061,-0.104156405,8.570114,-0.021062596,8.777552,-0.10216794,9.239944,-0.0562661,9.162605,-0.056406032,7.777927,-0.079993084,8.742027,-0.11106939,9.090134,-0.052825056,6.743679,-0.14808898,8.39789,-0.16915287,8.011878,-0.103106424,8.1736145,-0.10655551,7.0810976,-0.08286011,7.3657393,-0.15477943,6.9484897,-0.20278038,6.3456388,-0.19183919,7.27014,-0.1946635,8.161967,-0.117007375,6.3051076,-0.31490925,6.202012,-0.286004
2026-03-04 19:18:17.587411,6.369623381275258e-165,29891.07,7.855742931365967,6.1064634,0.3548411,6.057444,0.37893465,6.4866424,0.35753453,8.737249,0.17040664,6.8753743,0.18618529,6.476423,0.25122514,6.3428044,0.25789818,6.4491863,0.2730769,6.9207935,0.25016677,6.680484,0.1601161,8.583689,0.07558674,7.9036813,0.120947324,7.797416,0.115670875,7.5484424,0.12759624,8.043481,0.13132676,9.531916,0.11344253,7.3677616,0.043453194,7.3420496,0.059230883,7.2653146,0.11346613,8.444645,0.08377076,8.235133,0.103624724,8.712394,0.034308918,7.1664734,0.037745953,7.485903,0.07348892,9.744315,0.01154635,9.175722,-0.0023329165,8.345541,-0.035036113,10.040851,-0.01106407,9.137879,0.01614982,9.761955,-0.015298093,7.7331285,-0.05021047,9.206481,-0.07578197,8.919654,-0.10324133,8.499367,-0.02478857,8.757216,-0.098725624,9.074195,-0.0725621,9.235929,-0.04700007,7.7550206,-0.10130067,8.665388,-0.11118158,9.196474,-0.050470617,6.530933,-0.13680747,8.529372,-0.15006053,7.851548,-0.088200934,8.397053,-0.110859945,7.0602503,-0.08141529,7.4089174,-0.16538057,6.8508697,-0.20540458,6.229685,-0.17875053,7.0969324,-0.1921798,8.145936,-0.11476527,6.3874025,-0.32027125,6.199449,-0.27158475
2026-03-04 19:18:17.602346,1.284070441873819e-162,29891.07,7.854126453399658,6.08851,0.353014,6.0065155,0.37357494,6.5095277,0.35181758,8.638512,0.1583997,6.958417,0.17133106,6.5056653,0.25555512,6.335519,0.26939714,6.492358,0.28484195,6.87631,0.26026967,6.8629727,0.16435124,8.660673,0.0746035,7.9500394,0.14219606,7.728551,0.13904767,7.472867,0.13573389,7.913138,0.13524657,9.669436,0.10033103,7.338403,0.031099906,7.4009714,0.0321724,7.1951914,0.10626615,8.4457245,0.083384685,8.185088,0.10479139,8.731127,0.03165639,7.2625685,0.048445746,7.5677557,0.0753242,9.746504,0.0142081315,9.009794,0.0013873583,8.102417,-0.04917193,10.214552,-0.016441492,9.077518,0.0041504963,9.799696,-0.040720496,7.5656667,-0.06342531,9.254145,-0.091578364,8.847889,-0.10304826,8.570355,-0.030430237,8.619318,-0.117008016,9.20612,-0.05950636,9.316217,-0.051654182,7.730166,-0.091764726,8.615251,-0.11290473,8.973065,-0.05686443,6.7257147,-0.17168905,8.491731,-0.18316007,7.9542985,-0.11297153,8.332263,-0.12344606,7.1331944,-0.09302746,7.2879906,-0.1673753,6.926426,-0.20910244,6.137536,-0.18943013,7.238864,-0.18654396,8.233331,-0.13080792,6.3685994,-0.32513338,6.1401424,-0.29219052
2026-03-04 19:18:17.607297,2.4933193101904913e-160,29891.07,7.849406719207764,6.129919,0.3495731,6.005998,0.38415974,6.5465007,0.3623795,8.662391,0.17668475,6.9379516,0.18405409,6.4670844,0.2561019,6.2749834,0.26749977,6.4877625,0.2862064,6.8723817,0.25712615,6.7742753,0.16691273,8.610897,0.07578019,7.905572,0.1227778,7.7988415,0.12715374,7.5368814,0.12622882,7.9513373,0.13453422,9.633317,0.103842355,7.331353,0.042334016,7.2970595,0.055491723,7.2266493,0.11413446,8.395396,0.079729356,8.2306595,0.11136272,8.70202,0.040957704,7.2135158,0.042004306,7.532531,0.07175612,9.681887,0.009850789,9.098096,-0.0027200375,8.191749,-0.035758436,10.160677,-0.016648011,9.091147,0.0167031,9.757532,-0.023363745,7.6706595,-0.054072827,9.268033,-0.07674183,8.919355,-0.104032114,8.549581,-0.021751326,8.637961,-0.1082651,9.0886345,-0.060296953,9.236917,-0.051109098,7.6863976,-0.09842494,8.681618,-0.11235582,9.121998,-0.04824004,6.652876,-0.14972441,8.543743,-0.16786307,7.818767,-0.09093437,8.319413,-0.12145538,7.129446,-0.084420696,7.368541,-0.16311724,6.9323864,-0.20049448,6.195263,-0.18882014,7.1421924,-0.19996859,8.167353,-0.11763452,6.294829,-0.3271645,6.2368226,-0.28185415
2026-03-04 19:18:17.617367,4.663166356578973e-158,29891.07,7.845779895782471,6.165761,0.36036772,5.926835,0.38618276,6.573431,0.3703737,8.637435,0.17836344,7.0342746,0.18275169,6.3889494,0.27013743,6.288606,0.26626238,6.453273,0.2796414,6.875099,0.2638347,6.910431,0.18136553,8.585587,0.08464982,7.977203,0.15710707,7.7885957,0.15486802,7.5393386,0.14283572,7.8412848,0.13296907,9.672743,0.11791127,7.2767024,0.048125494,7.3911014,0.044204965,7.0668383,0.12412166,8.397374,0.08424057,8.239392,0.09850841,8.752988,0.041538294,7.2948565,0.05397492,7.4545097,0.08552511,9.726274,0.029842928,9.032348,0.015698025,8.105061,-0.046771035,10.2867155,-0.0072506266,9.027288,0.01007304,9.824525,-0.027873164,7.4929385,-0.042666677,9.193942,-0.079528466,8.84996,-0.10932601,8.623324,-0.019907922,8.707952,-0.10785849,9.239652,-0.061119452,9.234897,-0.04229281,7.706887,-0.07024273,8.647898,-0.099608116,9.026149,-0.0514053,6.723098,-0.1513246,8.451736,-0.16760884,7.897744,-0.10042264,8.178687,-0.10922681,7.082638,-0.09235909,7.340241,-0.1661465,6.989833,-0.20836753,6.194796,-0.19233482,7.2335353,-0.19089696,8.16751,-0.1171155,6.357692,-0.3117825,6.1046576,-0.2827252
2026-03-04 19:18:17.622592,8.400359537957986e-156,29891.07,7.79999303817749,6.10281,0.37027085,5.9584656,0.39986017,6.5391912,0.37527332,8.509529,0.19261093,7.005638,0.20648551,6.3598447,0.26036212,6.273562,0.26221338,6.4201508,0.27019274,6.8777213,0.2519736,6.7839518,0.1742474,8.512523,0.108095065,7.940891,0.1667301,7.720998,0.15928644,7.5266013,0.15914771,7.8316746,0.1454564,9.630868,0.12295811,7.196874,0.06696748,7.308507,0.0635902,7.036703,0.11574236,8.369757,0.0850657,8.237364,0.09841052,8.7920265,0.034030903,7.314085,0.04704079,7.4579763,0.10853366,9.669662,0.03599914,8.879691,0.018006256,8.091458,-0.03865069,10.195484,0.0020145017,8.976295,0.038293593,9.788663,-0.011590203,7.441244,-0.042450376,9.101945,-0.081893384,8.820745,-0.09757452,8.551422,-0.03270877,8.604589,-0.11374249,9.15986,-0.052342586,9.137237,-0.020953618,7.7336717,-0.072097145,8.643188,-0.08635563,8.968285,-0.036192566,6.734053,-0.14014187,8.445846,-0.1437529,7.8845377,-0.077425964,8.066007,-0.10993353,6.9927373,-0.10405344,7.2826624,-0.1730372,6.8968186,-0.21761353,6.1145935,-0.19684583,7.2361183,-0.18408933,8.009601,-0.102278374,6.398148,-0.29676867,6.0673103,-0.2651532
2026-03-04 19:18:17.627430,1.4575679048255515e-153,29891.07,7.850265979766846,6.113745,0.35523725,6.051581,0.38106605,6.554441,0.35992897,8.609533,0.16754112,6.880435,0.18340626,6.5137887,0.26816344,6.276892,0.26262018,6.4413834,0.28180373,6.8780165,0.2555402,6.7493196,0.18299934,8.587071,0.088673905,7.916497,0.15243179,7.7731247,0.15670349,7.586601,0.14526948,7.9963336,0.1334955,9.585181,0.10533284,7.317283,0.044981074,7.3066626,0.037001397,7.2488885,0.12525496,8.4300995,0.07758633,8.194821,0.10265737,8.749563,0.036958817,7.139828,0.056820888,7.5139294,0.09216325,9.673474,0.027678672,9.15126,0.016470568,8.200959,-0.044465136,10.097329,-0.011474997,9.176712,0.010337072,9.735388,-0.028174423,7.639349,-0.048066363,9.28999,-0.08202131,8.867053,-0.106845506,8.537773,-0.024596939,8.658188,-0.108353324,9.114932,-0.05890828,9.267625,-0.04827654,7.757991,-0.07435603,8.604419,-0.10244654,9.097596,-0.052806064,6.665543,-0.1531959,8.516356,-0.16576044,7.871586,-0.10023779,8.288686,-0.111447945,7.1337576,-0.09798843,7.344741,-0.16617921,6.9526763,-0.20769897,6.2363443,-0.18159083,7.146454,-0.18704462,8.229205,-0.120703004,6.294735,-0.30986252,6.2486763,-0.2876564
2026-03-04 19:18:17.632417,2.435979762412948e-151,29891.07,7.856959819793701,6.1771493,0.35777575,5.990767,0.38670674,6.5425286,0.3623744,8.638722,0.17666456,6.983874,0.19366261,6.392998,0.2525392,6.2407117,0.272287,6.4469633,0.28564045,6.9329057,0.25212747,6.809776,0.18019763,8.509548,0.09765229,7.9519787,0.15576805,7.8191247,0.15643673,7.6571703,0.15063144,7.969076,0.14786781,9.6653805,0.10890247,7.2977986,0.05758222,7.3901925,0.061845973,7.097543,0.1090791,8.347113,0.08385557,8.177638,0.107644014,8.835391,0.039273646,7.2737365,0.056106735,7.4636483,0.10440301,9.723055,0.035740178,9.068189,0.027971186,8.241033,-0.033577383,10.303452,-0.007397985,9.028193,0.028561369,9.786879,-0.01252322,7.499769,-0.05134574,9.164839,-0.08262833,8.898762,-0.098000176,8.589192,-0.019009445,8.771269,-0.103600316,9.231604,-0.050967213,9.18611,-0.02636629,7.7133045,-0.07500364,8.749444,-0.08579477,9.091242,-0.04254315,6.713741,-0.14745823,8.473045,-0.15174146,7.9682817,-0.08642432,8.205757,-0.10835044,7.012864,-0.09680404,7.379884,-0.15758546,6.955727,-0.20644885,6.2615924,-0.19477361,7.18492,-0.17951281,8.16804,-0.09727638,6.351135,-0.30953613,6.2288713,-0.26161867
2026-03-04 19:18:17.667554,3.921322055944541e-149,29891.07,7.859275341033935,6.17274,0.35662547,5.974406,0.38646823,6.577031,0.363253,8.64653,0.1703879,6.953119,0.18335478,6.431096,0.26394314,6.3640504,0.26085088,6.448499,0.27642164,6.8711867,0.25813252,6.7926497,0.1654467,8.572845,0.082943425,7.9404373,0.1455425,7.791809,0.14356935,7.5922446,0.14185923,7.9288015,0.1340956,9.638163,0.112799525,7.2914433,0.04443038,7.379019,0.045991022,7.2125626,0.11267957,8.450754,0.079050064,8.213455,0.103297815,8.749342,0.03561223,7.220079,0.03895624,7.51153,0.086921155,9.708406,0.023530409,9.106495,0.007353123,8.168101,-0.044490512,10.18656,-0.0100214835,9.075617,0.0125770215,9.81741,-0.022925565,7.574928,-0.04653108,9.250386,-0.086813115,8.9492655,-0.10386606,8.542674,-0.028008461,8.71122,-0.11006446,9.173271,-0.06598573,9.247886,-0.04278948,7.7396398,-0.08544726,8.681717,-0.10523298,9.0975685,-0.051442146,6.6567874,-0.14394268,8.460763,-0.1647553,7.9465237,-0.09569072,8.283953,-0.11896229,7.0972624,-0.096658126,7.407667,-0.16602705,6.900564,-0.20685886,6.263899,-0.19558138,7.1833596,-0.18984702,8.1940975,-0.121303916,6.3507543,-0.31221214,6.1817236,-0.2804736
2026-03-04 19:18:17.672484,6.080024162859515e-147,29891.07,7.85768985748291,6.143027,0.36059368,6.0019507,0.38159823,6.446731,0.35719508,8.742518,0.16748996,6.911604,0.18257293,6.480431,0.254604,6.3457828,0.2536771,6.4516373,0.27172536,6.989605,0.25151554,6.7321353,0.17714027,8.566385,0.091473885,7.940761,0.15762004,7.8052974,0.15892847,7.6541405,0.15428707,8.070591,0.13617961,9.516368,0.1061127,7.4033813,0.048606683,7.2847843,0.04430656,7.240969,0.109754324,8.426946,0.07451989,8.219706,0.09548964,8.791677,0.033294536,7.1554585,0.056317113,7.4636784,0.10107996,9.770144,0.037687093,9.139926,0.02250551,8.300535,-0.041881602,10.111896,-0.005883247,9.231524,0.023606097,9.692461,-0.022428764,7.6522717,-0.044695526,9.127624,-0.08566985,8.894603,-0.10358715,8.570299,-0.027908335,8.758631,-0.11142007,9.080185,-0.053533953,9.18757,-0.026333753,7.7298193,-0.06309511,8.680993,-0.08062725,9.2178955,-0.04442465,6.559852,-0.14530903,8.54077,-0.15907186,7.7905817,-0.08900555,8.315585,-0.10626079,7.083737,-0.0909653,7.38918,-0.1571384,6.84394,-0.19704443,6.241136,-0.1956396,7.1369824,-0.17132667,8.180562,-0.0948871,6.388121,-0.29051176,6.197484,-0.2624216
2026-03-04 19:18:17.682508,9.080129767960066e-145,29891.07,7.840641975402832,6.137955,0.3499568,6.0041785,0.37480977,6.5442357,0.34281558,8.555778,0.15376815,6.9212246,0.17242113,6.4277244,0.2566591,6.3461447,0.2493829,6.387859,0.27078366,6.8607364,0.24533363,6.76894,0.17676768,8.526376,0.08233998,7.986767,0.15152387,7.766616,0.15620106,7.6152453,0.1494668,7.969673,0.131515,9.605692,0.097709246,7.2977524,0.030981263,7.3256307,0.030606106,7.19658,0.11425604,8.460918,0.07046115,8.169948,0.09604964,8.716573,0.030904712,7.2485776,0.056448027,7.48135,0.0923934,9.742228,0.029710336,9.068228,0.021687176,8.168953,-0.049250368,10.071293,-0.014593341,9.097016,0.011113629,9.785762,-0.028141009,7.633381,-0.04915376,9.257176,-0.09019733,8.867861,-0.10068087,8.4886265,-0.023644602,8.669124,-0.1126149,9.104034,-0.06019874,9.289795,-0.039283976,7.7697387,-0.06949026,8.581883,-0.09303296,9.093152,-0.04882181,6.6332726,-0.14880964,8.506002,-0.16908303,7.946379,-0.09450192,8.241412,-0.11422874,7.114798,-0.09493267,7.3642497,-0.1618741,6.8693542,-0.19574006,6.21186,-0.19292438,7.141682,-0.17519362,8.177414,-0.113640904,6.300307,-0.293085,6.1959257,-0.26827362
2026-03-04 19:18:17.692544,1.3061491201488209e-142,29891.07,7.836191654205322,6.0383787,2.3508475,5.636884,0.54154825,6.6646314,-1.2006166,8.445426,3.0844219,7.0829096,1.32837,6.6326747,-0.31572658,6.744257,-2.181931,6.2951684,2.3059702,6.458451,0.6134883,6.946382,-1.1710466,8.438563,-3.0123427,8.003815,1.545261,8.000039,-0.19085838,7.362144,-1.9205257,7.478564,2.4820423,9.751539,0.7379742,7.067149,-1.103481,7.4817443,-2.8773851,7.27107,1.7217361,8.758688,-0.14220545,8.161211,-1.9241546,8.418221,2.5745375,7.339192,0.8726753,7.657588,-0.7905234,9.57419,-2.642973,9.123412,1.8549098,7.770143,-1.7958958,10.244125,2.824094,8.855323,1.0739537,10.123228,-0.73763245,7.542737,-2.4945042,9.695869,1.9171785,9.181921,0.07230642,8.272161,-1.6200873,8.173069,2.867211,9.269396,1.2255743,9.244308,-0.49801368,7.7826333,-2.3052788,8.595001,2.222598,8.644808,0.4649968,6.9483,-1.3924177,8.265767,3.1068013,8.256511,1.3985013,8.187594,-0.34756613,7.574857,-2.1768956,7.658463,2.2109303,6.7710733,0.4001155,5.7462926,-1.297394,7.2690988,-2.9733868,8.218223,1.6257429,6.195091,-0.33722857,6.1636543,-2.0818539
2026-03-04 19:18:17.697609,1.8097034990264205e-140,29891.07,7.851155757904053,6.13193,0.36659002,5.9858522,0.3906355,6.587644,0.37592348,8.592361,0.1704932,6.989227,0.18929589,6.500782,0.26451132,6.3705516,0.2728672,6.468806,0.28398305,6.8432865,0.2632547,6.787207,0.1782419,8.571995,0.093670666,7.953581,0.15889087,7.789806,0.15030634,7.550179,0.15129381,7.915057,0.14052235,9.634318,0.118354574,7.294024,0.050501417,7.3724866,0.050757863,7.1777625,0.11248797,8.477935,0.086802535,8.238676,0.10499559,8.690617,0.03964926,7.189806,0.045927234,7.5087094,0.09218556,9.756391,0.030022787,9.070797,0.013918429,8.118006,-0.038053,10.182507,-0.006092216,9.177546,0.021010047,9.746501,-0.022159608,7.615355,-0.05126828,9.291908,-0.08455057,8.897367,-0.10840126,8.554536,-0.028968895,8.600922,-0.116437815,9.145696,-0.061783947,9.280229,-0.04042296,7.7384253,-0.08822496,8.606216,-0.10301687,9.04496,-0.044700418,6.6519103,-0.15228708,8.521,-0.16583529,7.805656,-0.099791646,8.264887,-0.11514379,7.1556125,-0.100433365,7.3367248,-0.172375,6.94922,-0.21342932,6.153138,-0.18897218,7.192742,-0.19023775,8.234408,-0.12446902,6.3774924,-0.317112,6.167363,-0.28730634
2026-03-04 19:18:17.708739,2.4151051660579185e-138,29891.07,7.825307369232178,6.1124806,0.35690108,6.032527,0.3743239,6.554003,0.35452718,8.616108,0.16343288,6.8834963,0.1809397,6.490505,0.25821784,6.315785,0.272296,6.4436088,0.2744865,6.8502293,0.24883722,6.7119823,0.17448711,8.528505,0.09145428,7.922762,0.15563188,7.775983,0.14994517,7.506314,0.15067093,7.9910464,0.13394561,9.596766,0.108243324,7.3454027,0.041010376,7.210238,0.034566205,7.17673,0.11549609,8.425912,0.08066292,8.222338,0.09692311,8.700952,0.034992363,7.111931,0.048589483,7.521604,0.095313504,9.688253,0.03136951,9.08464,0.016764075,8.195536,-0.045233883,10.068241,-0.007259674,9.121599,0.01786972,9.632578,-0.02421936,7.661851,-0.044575986,9.189449,-0.083081186,8.880202,-0.10887586,8.5341215,-0.029712513,8.627408,-0.11564652,9.080519,-0.05909712,9.219451,-0.040671684,7.7137895,-0.072857216,8.573849,-0.09025981,9.101972,-0.04333914,6.597953,-0.13662516,8.534507,-0.16226865,7.7547555,-0.09103653,8.3258,-0.10562597,7.071183,-0.09948695,7.376797,-0.17143425,6.8932242,-0.20028424,6.1443534,-0.19557944,7.134496,-0.18832451,8.15175,-0.10687487,6.318239,-0.30137917,6.1922836,-0.2794852
2026-03-04 19:18:17.713186,3.1044067899273722e-136,29891.07,7.857767581939697,6.184564,0.36269355,5.989625,0.40129855,6.618825,0.37617216,8.562243,0.16736417,6.9527802,0.19215526,6.404012,0.26095378,6.2482276,0.2673385,6.475527,0.28268495,6.917814,0.26759788,6.8892064,0.1754067,8.527182,0.08126128,7.9524646,0.1462092,7.761456,0.13912252,7.608829,0.14577547,7.923622,0.14648138,9.727532,0.11697383,7.2570653,0.04275312,7.366471,0.054286093,7.0526924,0.1176565,8.353224,0.086722,8.257653,0.10661068,8.787373,0.0366296,7.288275,0.041619692,7.463768,0.08983797,9.731585,0.029692346,9.064591,0.0017451774,8.192481,-0.03692213,10.289749,-0.00547927,9.060198,0.019638313,9.813562,-0.015994608,7.452142,-0.04992875,9.171899,-0.07897264,8.885177,-0.10494419,8.590403,-0.024845218,8.706597,-0.11329493,9.282169,-0.062156916,9.199033,-0.04443026,7.7650075,-0.08442662,8.7135725,-0.10398488,9.0755005,-0.0388434,6.7378197,-0.14437762,8.523277,-0.16244417,8.020831,-0.09590736,8.130682,-0.10861176,7.0704503,-0.07971719,7.393136,-0.16343874,6.949578,-0.20945626,6.2614803,-0.19002433,7.2033095,-0.1888864,8.214966,-0.120728135,6.306348,-0.3065712,6.2279344,-0.29148862
2026-03-04 19:18:17.722651,3.8435732247345173e-134,29891.07,7.853523254394531,6.070546,0.35487142,6.133101,0.38403937,6.4615245,0.36401677,8.68802,0.17087594,6.860783,0.17583434,6.4979205,0.2611395,6.252635,0.25192922,6.4210544,0.2745808,6.898667,0.2587601,6.7687716,0.1855268,8.56118,0.083055235,7.996605,0.15455975,7.7587934,0.1611625,7.5537095,0.15047175,8.087742,0.13322125,9.560035,0.112932324,7.4682255,0.04766016,7.2723722,0.03376126,7.2410345,0.11751618,8.372282,0.07688746,8.171656,0.0950841,8.755252,0.040031973,7.209953,0.055874705,7.43633,0.09285171,9.800425,0.034575745,9.075169,0.023616835,8.275593,-0.046650134,10.124747,-0.0026246745,9.211836,0.013563444,9.705694,-0.028001802,7.66725,-0.044773325,9.173092,-0.088384084,8.837001,-0.10448787,8.587152,-0.021306755,8.714856,-0.10960329,9.135012,-0.054852612,9.218675,-0.03790891,7.7819967,-0.05703211,8.595299,-0.09294264,9.177004,-0.046154376,6.599336,-0.14404117,8.62896,-0.1599401,7.8487487,-0.099971555,8.272808,-0.10774405,7.0403957,-0.09317772,7.286421,-0.1569165,6.942846,-0.20289907,6.2645736,-0.18364501,7.1582036,-0.18004918,8.170523,-0.10595359,6.378929,-0.29145798,6.212457,-0.27626315
2026-03-04 19:18:17.752691,4.583588814397362e-132,29891.07,7.84124755859375,6.1278887,0.38173515,5.993544,0.39785865,6.5683584,0.3768024,8.545977,0.17702156,6.936763,0.19480641,6.4095263,0.26813352,6.3753757,0.26419258,6.4214373,0.26801556,6.887034,0.25957778,6.7549734,0.1763759,8.51953,0.10724933,7.916821,0.1673437,7.849682,0.17162155,7.647827,0.16699897,7.960237,0.1512879,9.632593,0.11965617,7.229789,0.063436985,7.3213515,0.06318783,7.146072,0.12977436,8.436583,0.07716297,8.222571,0.103177704,8.708014,0.040828716,7.2023396,0.052510273,7.5054154,0.11257721,9.715407,0.047604576,9.106972,0.030518118,8.187966,-0.036537323,10.193059,0.010168471,9.0644045,0.031703703,9.759375,-0.00015163513,7.5734463,-0.03491308,9.196144,-0.07801973,8.922591,-0.10490977,8.484575,-0.025234248,8.706855,-0.10696518,9.100599,-0.052418772,9.22159,-0.016442219,7.750884,-0.05574575,8.670035,-0.07324364,9.095369,-0.031421803,6.6232643,-0.12913036,8.4396105,-0.14838943,7.9146643,-0.0758346,8.221694,-0.09005428,7.048825,-0.093987785,7.409819,-0.16668975,6.84973,-0.20793876,6.27546,-0.18512553,7.1547704,-0.17142935,8.179904,-0.09025231,6.3339725,-0.2838887,6.2241464,-0.26163438
2026-03-04 19:18:17.757713,5.2648996692205135e-130,29891.07,7.813198566436768,6.136494,0.36052564,6.020312,0.37915328,6.5247903,0.35410944,8.534489,0.15787189,6.8745527,0.17280361,6.379046,0.25380686,6.2020435,0.27015293,6.427377,0.2659753,6.9716372,0.24990313,6.6744833,0.16463898,8.372116,0.082798086,7.906963,0.1421401,7.653949,0.14280452,7.66784,0.1471552,8.025112,0.13479325,9.587393,0.10204904,7.2645125,0.046902638,7.271042,0.046090927,7.0962563,0.11359386,8.335348,0.07742761,8.185736,0.09468659,8.77303,0.034691453,7.1869564,0.049676515,7.433753,0.10264654,9.789549,0.030505475,8.96528,0.015459046,8.231697,-0.04471432,10.1072035,-0.0059349025,8.979049,0.021144615,9.699892,-0.014052002,7.617923,-0.043595374,9.064231,-0.09117691,8.897945,-0.09679505,8.478215,-0.032877214,8.694352,-0.10855238,9.109436,-0.06716059,9.073989,-0.03580251,7.752009,-0.079896465,8.624199,-0.095196046,9.181871,-0.046345066,6.606919,-0.13567798,8.492537,-0.16000219,7.845846,-0.088517755,8.1914625,-0.111965805,6.958866,-0.09326906,7.4124947,-0.16480996,6.8374844,-0.20419954,6.33574,-0.18972962,7.1519413,-0.17808971,8.056677,-0.11060831,6.386119,-0.29099843,6.2381697,-0.2774281
2026-03-04 19:18:17.762721,5.824900415405197e-128,29891.07,7.816395759582519,6.088141,0.37230688,6.0826974,0.37669522,6.495235,0.3586469,8.557256,0.15887344,6.830855,0.17973901,6.5747733,0.26740003,6.351371,0.27059814,6.404895,0.2606306,6.885563,0.25706133,6.666868,0.16260085,8.44649,0.09073908,7.944575,0.15139385,7.700319,0.15447691,7.5245843,0.16815811,7.976012,0.13650435,9.608119,0.115544304,7.3563004,0.049553443,7.180703,0.045032524,7.2497644,0.122447595,8.438965,0.08093393,8.195893,0.1033987,8.652829,0.03746654,7.0724516,0.0366139,7.4896035,0.10333266,9.687822,0.03389154,9.024916,0.008468122,8.161511,-0.046156637,10.058168,-0.0017114516,9.178447,0.020956358,9.599738,-0.021117836,7.678109,-0.027413478,9.191346,-0.079779655,8.841853,-0.11177013,8.448168,-0.038475145,8.652042,-0.124000624,9.10784,-0.05963326,9.195106,-0.044460934,7.7421184,-0.06838724,8.537781,-0.09152705,9.1071005,-0.03526798,6.491351,-0.12611695,8.6002865,-0.15327556,7.69777,-0.09565588,8.300633,-0.08834372,7.1513715,-0.09875497,7.349087,-0.1699862,6.846527,-0.21090277,6.1315246,-0.18665273,7.125428,-0.18086624,8.171778,-0.120553866,6.3577366,-0.29083195,6.2427626,-0.27917692
